P10-stationary Bike1-biopac-01-30-2025.acq
Graph Created on: 2024-08-14 13:19:54.643
Recording on: 2025-01-30 14:37:30.676
8 msec/sample
7 channels
RSP, Y, RSPEC-R
Volts
ECG, X, RSPEC-R
mV
ECG (.05 - 100 Hz, AHA)
mV
ECG R-R
Seconds
Heart Rate
BPM
ECG R wave
mV
Respiration Rate
BPM
milliSec	CH5	CH9	CH40	CH41	CH42	CH43	CH44	
	37501 samples	37501 samples	37501 samples	37501 samples	37501 samples	37501 samples	37501 samples	
0	-7.0993	0.0872803	0	0	0	0	0	
8	-7.09442	0.0708008	0	0	0	0	0	
16	-7.09442	0.0752258	0	0	0	0	0	
24	-7.08954	0.0610352	0	0	0	0	0	
32	-7.08954	0.0915527	0	0	0	0	0	
40	-7.08954	0.132904	0	0	0	0	0	
48	-7.08618	0.151062	0	0	0	0	0	
56	-7.08527	0.151062	0	0	0	0	0	
64	-7.08405	0.180359	0	0	0	0	0	
72	-7.08466	0.171051	0	0	0	0	0	
80	-7.08466	0.147095	0	0	0	0	0	
88	-7.08954	0.13916	0	0	0	0	0	
96	-7.08893	0.139923	0	0	0	0	0	
104	-7.08984	0.131683	0	0	0	0	0	
112	-7.08954	0.116882	0	0	0	0	0	
120	-7.09412	0.096283	0	0	0	0	0	
128	-7.09351	0.0590515	0	0	0	0	0	
136	-7.0993	0.0396729	0	0	0	0	0	
144	-7.0993	0.0341797	0	0	0	0	0	
152	-7.10419	0.01297	0	0	0	0	0	
160	-7.10388	-0.0273132	0	0	0	0	0	
168	-7.10876	-0.090332	0	0	0	0	0	
176	-7.11304	-0.149994	0	0	0	0	0	
184	-7.11426	-0.169678	0	0	0	0	0	
192	-7.11884	-0.181122	0	0	0	0	0	
200	-7.12219	-0.181122	0	0	0	0	0	
208	-7.12372	-0.222778	0	0	0	0	0	
216	-7.1286	-0.30838	0	0	0	0	0	
224	-7.13287	-0.357056	0	0	0	0	0	
232	-7.13379	-0.292511	0	0	0	0	0	
240	-7.13837	-0.250397	0	0	0	0	0	
248	-7.14294	-0.210114	0	0	0	0	0	
256	-7.14386	-0.168457	0	0	0	0	0	
264	-7.14844	-0.119629	0	0	0	0	0	
272	-7.15332	-0.0486755	0	0	0	0	0	
280	-7.15393	0.0244141	0	0	0	0	0	
288	-7.15881	0.109406	0	0	0	0	0	
296	-7.16309	0.188293	0	0	0	0	0	
304	-7.1637	0.228424	0	0	0	0	0	
312	-7.16797	0.263062	0	0	0	0	0	
320	-7.17346	0.291901	0	0	0	0	0	
328	-7.17346	0.307617	0	0	0	0	0	
336	-7.17834	0.312653	0	0	0	0	0	
344	-7.17834	0.299225	0	0	0	0	0	
352	-7.18262	0.271301	0	0	0	0	0	
360	-7.18872	0.254974	0	0	0	0	0	
368	-7.18842	0.242462	0	0	0	0	0	
376	-7.19299	0.244141	0	0	0	0	0	
384	-7.19299	0.251465	0	0	0	0	0	
392	-7.19818	0.204926	0	0	0	0	0	
400	-7.19788	0.108185	0	0	0	0	0	
408	-7.20306	-0.0444031	0	0	0	0.312653	0	
416	-7.20245	-0.137939	0	0	0	0.312653	0	
424	-7.20734	0.0180054	0	0	0	0.312653	0	
432	-7.20795	0.426025	0	0	0	0.312653	0	
440	-7.21283	0.494843	0	0	0	0.312653	0	
448	-7.21191	0.313721	0	0	0	0.312653	0	
456	-7.21252	0.0393677	0	0	0	0.312653	0	
464	-7.21741	-0.241699	0	0	0	0.312653	0	
472	-7.21771	-0.336609	0	0	0	0.312653	0	
480	-7.2229	-0.321808	0	0	0	0.312653	0	
488	-7.2226	-0.294647	0	0	0	0.312653	0	
496	-7.22198	-0.271606	0	0	0	0.312653	0	
504	-7.22687	-0.247955	0	0	0	0.312653	0	
512	-7.22809	-0.201416	0	0	0	0.312653	0	
520	-7.22839	-0.182953	0	0	0	0.312653	0	
528	-7.23236	-0.0668335	0	0	0	0.312653	0	
536	-7.23206	0.0196838	0	0	0	0.312653	0	
544	-7.23572	0.043335	0	0	0	0.312653	0	
552	-7.23694	0.0840759	0	0	0	0.312653	0	
560	-7.23755	0.111084	0	0	0	0.312653	0	
568	-7.23755	0.147552	0	0	0	0.312653	0	
576	-7.24243	0.201569	0	0	0	0.312653	0	
584	-7.24274	0.22995	0	0	0	0.312653	0	
592	-7.24243	0.23468	0	0	0	0.312653	0	
600	-7.24182	0.245514	0	0	0	0.312653	0	
608	-7.24701	0.237274	0	0	0	0.312653	0	
616	-7.24762	0.21698	0	0	0	0.312653	0	
624	-7.2467	0.196228	0	0	0	0.312653	0	
632	-7.2467	0.178223	0	0	0	0.312653	0	
640	-7.24762	0.13504	0	0	0	0.312653	0	
648	-7.2522	0.0985718	0	0	0	0.312653	0	
656	-7.2522	0.0588989	0	0	0	0.312653	0	
664	-7.2522	0.0370789	0	0	0	0.312653	0	
672	-7.2522	0.0158691	0	0	0	0.312653	0	
680	-7.25189	-0.0111389	0	0	0	0.312653	0	
688	-7.2525	-0.0378418	0	0	0	0.312653	0	
696	-7.2522	-0.063324	0	0	0	0.312653	0	
704	-7.25159	-0.0917053	0	0	0	0.312653	0	
712	-7.25189	-0.122223	0	0	0	0.312653	0	
720	-7.25189	-0.13443	0	0	0	0.312653	0	
728	-7.2522	-0.139008	0	0	0	0.312653	0	
736	-7.2525	-0.139313	0	0	0	0.312653	0	
744	-7.25189	-0.123596	0	0	0	0.312653	0	
752	-7.2522	-0.101013	0	0	0	0.312653	0	
760	-7.25159	-0.0816345	0	0	0	0.312653	0	
768	-7.25189	-0.0474548	0	0	0	0.312653	0	
776	-7.2525	-0.015564	0	0	0	0.312653	0	
784	-7.25189	0.00213623	0	0	0	0.312653	0	
792	-7.25159	0.0119019	-0.0488387	0	0	0.312653	0	
800	-7.25281	0.0210571	-0.163281	0	0	0.312653	0	
808	-7.25189	0.038147	-0.300014	0	0	0.312653	0	
816	-7.2522	0.0675964	-0.133257	0	0	0.312653	0	
824	-7.25189	0.0917053	0.460893	0	0	0.312653	0	
832	-7.2522	0.110931	0.508627	0	0	0.312653	0	
840	-7.24792	0.119324	0.305807	0	0	0.312653	0	
848	-7.2467	0.121613	0.0897974	0	0	0.312653	0	
856	-7.24701	0.11261	-0.161208	0	0	0.312653	0	
864	-7.24731	0.0933838	-0.204024	0	0	0.312653	0	
872	-7.24701	0.0730896	-0.182665	0	0	0.312653	0	
880	-7.24762	0.0656128	-0.184523	0	0	0.312653	0	
888	-7.24701	0.06073	-0.162248	0	0	0.312653	0	
896	-7.24701	0.0605774	-0.116408	0	0	0.312653	0	
904	-7.24731	0.0622559	-0.0592158	0	0	0.312653	0	
912	-7.24152	0.0630188	-0.117272	0	0	0.312653	0	
920	-7.24213	0.0518799	-0.00765434	0	0	0.312653	0	
928	-7.24213	0.0393677	0.0616401	0	0	0.312653	0	
936	-7.24243	0.0157166	0.038351	0	0	0.312653	0	
944	-7.24182	-0.00961304	0.0619077	0	0	0.312653	0	
952	-7.24182	-0.0363159	0.0480817	0	0	0.312653	0	
960	-7.24213	-0.0631714	0.0429091	0	0	0.312653	0	
968	-7.24213	-0.0915527	0.0790728	0	0	0.312653	0	
976	-7.24182	-0.10498	0.083908	0	0	0.312653	0	
984	-7.24152	-0.113983	0.0628222	0	0	0.312653	0	
992	-7.24274	-0.136566	0.0703641	0	0	0.312653	0	
1000	-7.23724	-0.141754	0.0534569	0	0	0.312653	0	
1008	-7.23694	-0.13443	0.026996	0	0	0.312653	0	
1016	-7.23724	-0.117035	0.0150003	0	0	0.312653	0	
1024	-7.23694	-0.0939941	0.0223892	0	0	0.312653	0	
1032	-7.23724	-0.0575256	-0.00995855	0	0	0.312653	0	
1040	-7.23663	-0.0280762	-0.0226108	0	0	0.312653	0	
1048	-7.23755	0.00366211	-0.0405026	0	0	0.312653	0	
1056	-7.23755	0.0402832	-0.0261132	0	0	0.312653	0	
1064	-7.23206	0.0695801	-0.0154521	0	0	0.312653	0	
1072	-7.23236	0.0952148	-0.0188377	0	0	0.312653	0	
1080	-7.23267	0.0878906	-0.0202303	0	0	0.312653	0	
1088	-7.23206	0.0543213	-0.0171305	0	0	0.312653	0	
1096	-7.22748	-0.0100708	-0.0223215	0	0	0.312653	0	
1104	-7.22748	-0.0424194	-0.0414981	0	0	0.312653	0	
1112	-7.2226	0.114136	-0.0389539	0	0	0.312653	0	
1120	-7.22229	0.445709	-0.0367546	0	0	0.312653	0	
1128	-7.21741	0.518036	-0.039667	0	0	0.312653	0	
1136	-7.2171	0.301666	-0.0229865	0.688	87.2093	0.312653	0	
1144	-7.21313	0.0135803	-0.00540565	0.688	87.2093	0.518036	0	
1152	-7.20856	-0.32074	-0.00631152	0.688	87.2093	0.518036	0	
1160	-7.20764	-0.429382	0.0152454	0.688	87.2093	0.518036	0	
1168	-7.20245	-0.3862	0.0332583	0.688	87.2093	0.518036	0	
1176	-7.20001	-0.291748	0.0301177	0.688	87.2093	0.518036	0	
1184	-7.19879	-0.225983	0.0179177	0.688	87.2093	0.518036	0	
1192	-7.19299	-0.196381	0.00506389	0.688	87.2093	0.518036	0	
1200	-7.18842	-0.169525	0.00242553	0.688	87.2093	0.518036	0	
1208	-7.18811	-0.130768	0.0183208	0.688	87.2093	0.518036	0	
1216	-7.18323	-0.0866699	0.0232813	0.688	87.2093	0.518036	0	
1224	-7.17865	-0.0572205	0.0265919	0.688	87.2093	0.518036	0	
1232	-7.17224	-0.0367737	0.0223467	0.688	87.2093	0.518036	0	
1240	-7.16888	-0.0135803	0.0213273	0.688	87.2093	0.518036	0	
1248	-7.1637	0.00274658	0.0105951	0.688	87.2093	0.518036	0	
1256	-7.16339	0.00717163	-0.012146	0.688	87.2093	0.518036	0	
1264	-7.15881	0.00259399	-0.0332334	0.688	87.2093	0.518036	0	
1272	-7.15332	0	-0.0288798	0.688	87.2093	0.518036	0	
1280	-7.14844	0.00640869	-0.0222524	0.688	87.2093	0.518036	0	
1288	-7.14325	0.0146484	-0.00957426	0.688	87.2093	0.518036	0	
1296	-7.13867	0.0102234	0.00617026	0.688	87.2093	0.518036	0	
1304	-7.13562	-0.00946045	0.0250457	0.688	87.2093	0.518036	0	
1312	-7.13348	-0.0283813	0.0300254	0.688	87.2093	0.518036	0	
1320	-7.12891	-0.0437927	0.0423803	0.688	87.2093	0.518036	0	
1328	-7.12402	-0.062561	0.0376904	0.688	87.2093	0.518036	0	
1336	-7.11884	-0.0915527	0.0294331	0.688	87.2093	0.518036	0	
1344	-7.11365	-0.109558	0.0168467	0.688	87.2093	0.518036	0	
1352	-7.10846	-0.12207	0.00361421	0.688	87.2093	0.518036	0	
1360	-7.10419	-0.131531	-0.0150793	0.688	87.2093	0.518036	0	
1368	-7.10114	-0.158081	-0.0131962	0.688	87.2093	0.518036	0	
1376	-7.09961	-0.168457	-0.0166451	0.688	87.2093	0.518036	0	
1384	-7.09503	-0.194397	-0.0577267	0.688	87.2093	0.518036	0	
1392	-7.08954	-0.195465	-0.0673521	0.688	87.2093	0.518036	0	
1400	-7.08435	-0.200348	-0.0573012	0.688	87.2093	0.518036	0	
1408	-7.07977	-0.202637	-0.0456422	0.688	87.2093	0.518036	0	
1416	-7.07977	-0.183716	-0.0491659	0.688	87.2093	0.518036	0	
1424	-7.07397	-0.162659	-0.0391944	0.688	87.2093	0.518036	0	
1432	-7.0697	-0.130463	-0.0322242	0.688	87.2093	0.518036	0	
1440	-7.06421	-0.109558	-0.00327357	0.688	87.2093	0.518036	0	
1448	-7.06482	-0.0866699	0.0310362	0.688	87.2093	0.518036	0	
1456	-7.05994	-0.0584412	0.0278142	0.688	87.2093	0.518036	0	
1464	-7.05505	-0.0389099	0.0188251	0.688	87.2093	0.518036	0	
1472	-7.05109	-0.030365	0.00151604	0.688	87.2093	0.518036	0	
1480	-7.04987	-0.0254822	0.00837237	0.688	87.2093	0.518036	0	
1488	-7.04468	-0.015564	-0.0392408	0.688	87.2093	0.518036	0	
1496	-7.04498	0.00946045	-0.130007	0.688	87.2093	0.518036	0	
1504	-7.03979	0.0364685	0.00870318	0.688	87.2093	0.518036	0	
1512	-7.03522	0.057373	0.454809	0.688	87.2093	0.518036	0	
1520	-7.03522	0.0752258	0.526102	0.688	87.2093	0.518036	0	
1528	-7.03094	0.0811768	0.269973	0.688	87.2093	0.518036	0	
1536	-7.03033	0.0802612	0.045716	0.688	87.2093	0.518036	0	
1544	-7.02545	0.0900269	-0.29122	0.688	87.2093	0.518036	0	
1552	-7.02515	0.102386	-0.351578	0.688	87.2093	0.518036	0	
1560	-7.02026	0.114288	-0.287999	0.688	87.2093	0.518036	0	
1568	-7.02057	0.119629	-0.192905	0.688	87.2093	0.518036	0	
1576	-7.01569	0.121765	-0.12469	0.688	87.2093	0.518036	0	
1584	-7.01477	0.112305	-0.0813209	0.688	87.2093	0.518036	0	
1592	-7.0105	0.091095	-0.0391423	0.688	87.2093	0.518036	0	
1600	-7.0108	0.0595093	-0.00124764	0.688	87.2093	0.518036	0	
1608	-7.00592	0.0354004	0.0297641	0.688	87.2093	0.518036	0	
1616	-7.00623	0.0134277	0.0411388	0.688	87.2093	0.518036	0	
1624	-7.00623	0.00549316	0.0522259	0.688	87.2093	0.518036	0	
1632	-7.00073	0.0234985	0.0740519	0.688	87.2093	0.518036	0	
1640	-7.00073	0.0457764	0.0782474	0.688	87.2093	0.518036	0	
1648	-7.00043	0.0901794	0.0609891	0.688	87.2093	0.518036	0	
1656	-6.99615	0.130463	0.0374759	0.688	87.2093	0.518036	0	
1664	-6.99615	0.140991	0.0275432	0.688	87.2093	0.518036	0	
1672	-6.9931	0.121918	0.035329	0.688	87.2093	0.518036	0	
1680	-6.99127	0.0909424	0.0438425	0.688	87.2093	0.518036	0	
1688	-6.99005	0.0546265	0.0334469	0.688	87.2093	0.518036	0	
1696	-6.99036	0.00213623	0.00910622	0.688	87.2093	0.518036	0	
1704	-6.98639	-0.0233459	0.00203236	0.688	87.2093	0.518036	0	
1712	-6.98608	-0.0413513	0.0077412	0.688	87.2093	0.518036	0	
1720	-6.98639	-0.0610352	0.00450299	0.688	87.2093	0.518036	0	
1728	-6.98608	-0.0608826	-0.0214089	0.688	87.2093	0.518036	0	
1736	-6.9812	-0.0578308	-0.0240344	0.688	87.2093	0.518036	0	
1744	-6.9809	-0.0637817	-0.0140154	0.688	87.2093	0.518036	0	
1752	-6.9809	-0.0686646	0.000570373	0.688	87.2093	0.518036	0	
1760	-6.9809	-0.0610352	-0.0226566	0.688	87.2093	0.518036	0	
1768	-6.97632	-0.0904846	-0.016283	0.688	87.2093	0.518036	0	
1776	-6.9754	-0.0860596	-0.043226	0.688	87.2093	0.518036	0	
1784	-6.97662	0.128937	-0.0261165	0.688	87.2093	0.518036	0	
1792	-6.97601	0.514374	-0.0284212	0.688	87.2093	0.518036	0	
1800	-6.97052	0.657196	-0.0410743	0.688	87.2093	0.518036	0	
1808	-6.97083	0.448151	-0.0253058	0.688	87.2093	0.518036	0	
1816	-6.97144	0.183411	-0.0144898	0.672	89.2857	0.657196	0	
1824	-6.97144	-0.149384	0.0131027	0.672	89.2857	0.657196	0	
1832	-6.96838	-0.276031	0.0139059	0.672	89.2857	0.657196	0	
1840	-6.96686	-0.210419	0.0156534	0.672	89.2857	0.657196	0	
1848	-6.96564	-0.138092	0.0287347	0.672	89.2857	0.657196	0	
1856	-6.96594	-0.0964355	0.0301222	0.672	89.2857	0.657196	0	
1864	-6.96625	-0.0624084	0.0171717	0.672	89.2857	0.657196	0	
1872	-6.96625	-0.0439453	0.000267329	0.672	89.2857	0.657196	0	
1880	-6.96594	-0.0479126	-0.0110746	0.672	89.2857	0.657196	0	
1888	-6.96106	-0.063324	-0.00118816	0.672	89.2857	0.657196	0	
1896	-6.96167	-0.0727844	0.00760339	0.672	89.2857	0.657196	0	
1904	-6.96136	-0.0802612	0.00890977	0.672	89.2857	0.657196	0	
1912	-6.96136	-0.0820923	0.0162486	0.672	89.2857	0.657196	0	
1920	-6.96075	-0.0906372	0.0109375	0.672	89.2857	0.657196	0	
1928	-6.96136	-0.0691223	-0.00430411	0.672	89.2857	0.657196	0	
1936	-6.96075	-0.0378418	-0.000489401	0.672	89.2857	0.657196	0	
1944	-6.95587	-0.00778198	0.00637057	0.672	89.2857	0.657196	0	
1952	-6.95648	0.0236511	0.0146464	0.672	89.2857	0.657196	0	
1960	-6.95618	0.0497437	0.0161649	0.672	89.2857	0.657196	0	
1968	-6.95679	0.0746155	0.0198368	0.672	89.2857	0.657196	0	
1976	-6.95648	0.0926208	0.0112366	0.672	89.2857	0.657196	0	
1984	-6.95648	0.0831604	-0.00762903	0.672	89.2857	0.657196	0	
1992	-6.95099	0.078125	-0.036082	0.672	89.2857	0.657196	0	
2000	-6.95129	0.0619507	-0.0476188	0.672	89.2857	0.657196	0	
2008	-6.95007	0.0483704	-0.0647523	0.672	89.2857	0.657196	0	
2016	-6.95099	0.0596619	-0.0702323	0.672	89.2857	0.657196	0	
2024	-6.9455	0.0610352	-0.0393659	0.672	89.2857	0.657196	0	
2032	-6.94672	0.0305176	-0.0122361	0.672	89.2857	0.657196	0	
2040	-6.94641	0.00534058	0.0494904	0.672	89.2857	0.657196	0	
2048	-6.94183	-0.0186157	0.100818	0.672	89.2857	0.657196	0	
2056	-6.94183	-0.0334167	0.107575	0.672	89.2857	0.657196	0	
2064	-6.94122	-0.0343323	0.0873814	0.672	89.2857	0.657196	0	
2072	-6.93634	-0.0291443	0.0743977	0.672	89.2857	0.657196	0	
2080	-6.93665	-0.0382996	0.0572801	0.672	89.2857	0.657196	0	
2088	-6.93665	-0.0993347	-0.011618	0.672	89.2857	0.657196	0	
2096	-6.93634	-0.09552	-0.047152	0.672	89.2857	0.657196	0	
2104	-6.93146	-0.0808716	-0.0679076	0.672	89.2857	0.657196	0	
2112	-6.93176	-0.0663757	-0.0824588	0.672	89.2857	0.657196	0	
2120	-6.93176	-0.0563049	-0.0679783	0.672	89.2857	0.657196	0	
2128	-6.92688	-0.0437927	-0.082135	0.672	89.2857	0.657196	0	
2136	-6.92749	-0.032959	-0.133086	0.672	89.2857	0.657196	0	
2144	-6.92688	-0.0205994	-0.149633	0.672	89.2857	0.657196	0	
2152	-6.92719	-0.00534058	-0.0878825	0.672	89.2857	0.657196	0	
2160	-6.922	0.00686646	-0.110923	0.672	89.2857	0.657196	0	
2168	-6.922	0.0170898	-0.186478	0.672	89.2857	0.657196	0	
2176	-6.92169	0.0280762	0.00173414	0.672	89.2857	0.657196	0	
2184	-6.92169	0.0317383	0.48552	0.672	89.2857	0.657196	0	
2192	-6.91681	0.0315857	0.634784	0.672	89.2857	0.657196	0	
2200	-6.9162	0.0318909	0.346673	0.672	89.2857	0.657196	0	
2208	-6.9165	0.0292969	0.142502	0.672	89.2857	0.657196	0	
2216	-6.91742	0.0317383	-0.201442	0.672	89.2857	0.657196	0	
2224	-6.9165	0.0320435	-0.298631	0.672	89.2857	0.657196	0	
2232	-6.9165	0.0367737	-0.187697	0.672	89.2857	0.657196	0	
2240	-6.91254	0.0508118	-0.132333	0.672	89.2857	0.657196	0	
2248	-6.91193	0.0543213	-0.103019	0.672	89.2857	0.657196	0	
2256	-6.91193	0.0559998	-0.0323411	0.672	89.2857	0.657196	0	
2264	-6.91162	0.0537109	0.0238976	0.672	89.2857	0.657196	0	
2272	-6.91162	0.0483704	0.0200371	0.672	89.2857	0.657196	0	
2280	-6.91223	0.0485229	-0.0142775	0.672	89.2857	0.657196	0	
2288	-6.91162	0.0392151	-0.0232662	0.672	89.2857	0.657196	0	
2296	-6.91223	0.0341797	-0.0160656	0.672	89.2857	0.657196	0	
2304	-6.91223	0.0270081	-0.00830473	0.672	89.2857	0.657196	0	
2312	-6.91162	0.0221252	-0.0413686	0.672	89.2857	0.657196	0	
2320	-6.91193	0.0285339	-0.0355926	0.672	89.2857	0.657196	0	
2328	-6.91162	0.0390625	-0.0144408	0.672	89.2857	0.657196	0	
2336	-6.91193	0.0488281	0.00790825	0.672	89.2857	0.657196	0	
2344	-6.91162	0.0439453	0.0317373	0.672	89.2857	0.657196	0	
2352	-6.91162	0.032959	0.0396928	0.672	89.2857	0.657196	0	
2360	-6.91132	0.0262451	0.047792	0.672	89.2857	0.657196	0	
2368	-6.91193	0.0379944	0.0588911	0.672	89.2857	0.657196	0	
2376	-6.91162	0.0410461	0.0380644	0.672	89.2857	0.657196	0	
2384	-6.91193	0.0344849	0.0406089	0.672	89.2857	0.657196	0	
2392	-6.91193	0.032196	0.0199019	0.672	89.2857	0.657196	0	
2400	-6.91193	0.0106812	-0.00479075	0.672	89.2857	0.657196	0	
2408	-6.91101	-0.0161743	0.0174889	0.672	89.2857	0.657196	0	
2416	-6.90704	-0.042572	0.0315157	0.672	89.2857	0.657196	0	
2424	-6.90643	-0.0558472	0.000904107	0.672	89.2857	0.657196	0	
2432	-6.90704	-0.0756836	-0.00792547	0.672	89.2857	0.657196	0	
2440	-6.90704	-0.090332	-0.0204101	0.672	89.2857	0.657196	0	
2448	-6.90735	-0.0878906	-0.0309094	0.672	89.2857	0.657196	0	
2456	-6.90216	-0.080719	-0.023454	0.672	89.2857	0.657196	0	
2464	-6.90247	-0.0733948	0.00225125	0.672	89.2857	0.657196	0	
2472	-6.90186	-0.0570679	0.0130313	0.672	89.2857	0.657196	0	
2480	-6.90125	-0.0439453	-0.0757935	0.672	89.2857	0.657196	0	
2488	-6.90247	-0.0708008	-0.0488394	0.672	89.2857	0.657196	0	
2496	-6.89758	0.0276184	-0.0230511	0.672	89.2857	0.657196	0	
2504	-6.89758	0.355835	-0.0129839	0.672	89.2857	0.657196	0	
2512	-6.89789	0.733795	-0.0127845	0.672	89.2857	0.657196	0	
2520	-6.89789	0.633698	-0.00176352	0.672	89.2857	0.657196	0	
2528	-6.89697	0.378723	0.00749941	0.712	84.2697	0.657196	0	
2536	-6.89667	0.0233459	0.0142601	0.712	84.2697	0.733795	0	
2544	-6.89728	-0.276489	0.0206329	0.712	84.2697	0.733795	0	
2552	-6.89758	-0.321503	0.0205851	0.712	84.2697	0.733795	0	
2560	-6.89758	-0.334167	0.0214491	0.712	84.2697	0.733795	0	
2568	-6.89728	-0.314026	0.0287222	0.712	84.2697	0.733795	0	
2576	-6.89758	-0.231934	0.0235954	0.712	84.2697	0.733795	0	
2584	-6.90155	-0.162659	0.0124298	0.712	84.2697	0.733795	0	
2592	-6.90155	-0.0999451	0.00535863	0.712	84.2697	0.733795	0	
2600	-6.90643	-0.0537109	-0.00419872	0.712	84.2697	0.733795	0	
2608	-6.90674	-0.0297546	-0.00358668	0.712	84.2697	0.733795	0	
2616	-6.91193	-0.014801	-0.0108753	0.712	84.2697	0.733795	0	
2624	-6.9162	-0.0332642	-0.0132589	0.712	84.2697	0.733795	0	
2632	-6.91681	-0.032196	0.00253655	0.712	84.2697	0.733795	0	
2640	-6.922	-0.00762939	0.000893755	0.712	84.2697	0.733795	0	
2648	-6.92688	0.0012207	0.000777015	0.712	84.2697	0.733795	0	
2656	-6.93054	0.0112915	-0.002972	0.712	84.2697	0.733795	0	
2664	-6.93604	0.0331116	-0.0101001	0.712	84.2697	0.733795	0	
2672	-6.93848	0.0570679	-0.00454983	0.712	84.2697	0.733795	0	
2680	-6.94122	0.106049	-0.0164608	0.712	84.2697	0.733795	0	
2688	-6.94611	0.11734	-0.0181759	0.712	84.2697	0.733795	0	
2696	-6.95099	0.11322	-0.0229847	0.712	84.2697	0.733795	0	
2704	-6.95618	0.0862122	-0.0246787	0.712	84.2697	0.733795	0	
2712	-6.96106	0.0401306	-0.00925221	0.712	84.2697	0.733795	0	
2720	-6.96564	-0.0111389	0.00822186	0.712	84.2697	0.733795	0	
2728	-6.97052	-0.0552368	0.0245007	0.712	84.2697	0.733795	0	
2736	-6.97601	-0.0865173	0.0216431	0.712	84.2697	0.733795	0	
2744	-6.98151	-0.123596	0.018698	0.712	84.2697	0.733795	0	
2752	-6.98578	-0.15274	0.0248159	0.712	84.2697	0.733795	0	
2760	-6.99036	-0.190887	0.0536813	0.712	84.2697	0.733795	0	
2768	-6.99585	-0.211639	0.0513634	0.712	84.2697	0.733795	0	
2776	-7.00073	-0.249023	0.0347068	0.712	84.2697	0.733795	0	
2784	-7.00623	-0.355835	0.048338	0.712	84.2697	0.733795	0	
2792	-7.0108	-0.388184	0.0388246	0.712	84.2697	0.733795	0	
2800	-7.01538	-0.379333	0.0100687	0.712	84.2697	0.733795	0	
2808	-7.01965	-0.343323	-0.0379172	0.712	84.2697	0.733795	0	
2816	-7.02545	-0.276031	-0.0636624	0.712	84.2697	0.733795	0	
2824	-7.03064	-0.20874	-0.0860873	0.712	84.2697	0.733795	0	
2832	-7.03491	-0.169678	-0.091722	0.712	84.2697	0.733795	0	
2840	-7.0401	-0.139923	-0.0923396	0.712	84.2697	0.733795	0	
2848	-7.03949	-0.13031	-0.125184	0.712	84.2697	0.733795	0	
2856	-7.04498	-0.11322	-0.158144	0.712	84.2697	0.733795	0	
2864	-7.05078	-0.0671387	-0.120206	0.712	84.2697	0.733795	0	
2872	-7.05505	-0.0672913	-0.0506023	0.712	84.2697	0.733795	0	
2880	-7.0578	-0.0802612	-0.12358	0.712	84.2697	0.733795	0	
2888	-7.05933	-0.0662231	-0.102496	0.712	84.2697	0.733795	0	
2896	-7.06451	-0.0550842	0.256582	0.712	84.2697	0.733795	0	
2904	-7.06879	-0.0354004	0.769999	0.712	84.2697	0.733795	0	
2912	-7.0697	-0.0387573	0.566387	0.712	84.2697	0.733795	0	
2920	-7.07489	-0.00442505	0.323164	0.712	84.2697	0.733795	0	
2928	-7.07458	0.0695801	-0.000691961	0.712	84.2697	0.733795	0	
2936	-7.07947	0.0856018	-0.295343	0.712	84.2697	0.733795	0	
2944	-7.08405	0.0758362	-0.260302	0.712	84.2697	0.733795	0	
2952	-7.08405	0.0823975	-0.295978	0.712	84.2697	0.733795	0	
2960	-7.09015	0.0996399	-0.304023	0.712	84.2697	0.733795	0	
2968	-7.08923	0.10498	-0.177323	0.712	84.2697	0.733795	0	
2976	-7.09412	0.098114	-0.0792057	0.712	84.2697	0.733795	0	
2984	-7.09442	0.0874329	-0.0159393	0.712	84.2697	0.733795	0	
2992	-7.09381	0.102386	0.010453	0.712	84.2697	0.733795	0	
3000	-7.09869	0.142822	0.0218737	0.712	84.2697	0.733795	0	
3008	-7.0993	0.158691	0.0501873	0.712	84.2697	0.733795	0	
3016	-7.099	0.185242	0.017579	0.712	84.2697	0.733795	0	
3024	-7.0993	0.214081	0.00229755	0.712	84.2697	0.733795	0	
3032	-7.10449	0.232086	0.0151267	0.712	84.2697	0.733795	0	
3040	-7.10388	0.21286	-0.000530326	0.712	84.2697	0.733795	0	
3048	-7.10419	0.223694	-0.00179713	0.712	84.2697	0.733795	0	
3056	-7.10388	0.232239	0.0189595	0.712	84.2697	0.733795	0	
3064	-7.10419	0.215149	0.0288081	0.712	84.2697	0.733795	0	
3072	-7.10449	0.205078	0.0825668	0.712	84.2697	0.733795	0	
3080	-7.10419	0.204773	0.0815415	0.712	84.2697	0.733795	0	
3088	-7.10388	0.197449	0.0887078	0.712	84.2697	0.733795	0	
3096	-7.10388	0.162354	0.0836885	0.712	84.2697	0.733795	0	
3104	-7.10358	0.128021	0.0549217	0.712	84.2697	0.733795	0	
3112	-7.10419	0.0862122	0.0173613	0.712	84.2697	0.733795	0	
3120	-7.1048	0.0614929	-0.00446527	0.712	84.2697	0.733795	0	
3128	-7.10327	0.0233459	0.00246859	0.712	84.2697	0.733795	0	
3136	-7.10388	-0.00854492	-0.0048416	0.712	84.2697	0.733795	0	
3144	-7.10388	-0.0463867	-0.00646337	0.712	84.2697	0.733795	0	
3152	-7.10388	-0.0917053	-0.0326018	0.712	84.2697	0.733795	0	
3160	-7.10419	-0.129395	-0.0149627	0.712	84.2697	0.733795	0	
3168	-7.10419	-0.129242	-0.0111581	0.712	84.2697	0.733795	0	
3176	-7.0993	-0.118408	-0.138937	0.712	84.2697	0.733795	0	
3184	-7.0993	-0.0915527	-0.142529	0.712	84.2697	0.733795	0	
3192	-7.09839	-0.0547791	-0.11631	0.712	84.2697	0.733795	0	
3200	-7.099	-0.0161743	-0.0895814	0.712	84.2697	0.733795	0	
3208	-7.09442	0.00595093	-0.0286658	0.712	84.2697	0.733795	0	
3216	-7.09442	0.0244141	0.0347255	0.712	84.2697	0.733795	0	
3224	-7.09442	0.0434875	0.0589249	0.712	84.2697	0.733795	0	
3232	-7.08954	0.0579834	0.0770464	0.712	84.2697	0.733795	0	
3240	-7.08923	0.0656128	0.0560239	0.712	84.2697	0.733795	0	
3248	-7.08984	0.0627136	0.0461242	0.712	84.2697	0.733795	0	
3256	-7.08466	0.0473022	0.0940758	0.712	84.2697	0.733795	0	
3264	-7.08405	0.015564	0.0555546	0.712	84.2697	0.733795	0	
3272	-7.0816	-0.00701904	-0.000248278	0.712	84.2697	0.733795	0	
3280	-7.07947	-0.0100708	0.00340159	0.712	84.2697	0.733795	0	
3288	-7.07947	0	-5.55818E-05	0.712	84.2697	0.733795	0	
3296	-7.07458	0.035553	0.0045184	0.712	84.2697	0.733795	0	
3304	-7.07458	0.0601196	-0.0501414	0.712	84.2697	0.733795	0	
3312	-7.0697	0.0579834	-0.0388107	0.712	84.2697	0.733795	0	
3320	-7.0694	0.0543213	0.0533363	0.712	84.2697	0.733795	0	
3328	-7.06512	0.0331116	0.0415633	0.712	84.2697	0.733795	0	
3336	-7.05902	0.0143433	-0.00740653	0.712	84.2697	0.733795	0	
3344	-7.06024	-0.00198364	-0.0151664	0.712	84.2697	0.733795	0	
3352	-7.05505	-0.012207	0.000622577	0.712	84.2697	0.733795	0	
3360	-7.05475	-0.0259399	-0.00630045	0.712	84.2697	0.733795	0	
3368	-7.05017	-0.0270081	-0.0350276	0.712	84.2697	0.733795	0	
3376	-7.04559	0.012207	-0.0713611	0.712	84.2697	0.733795	0	
3384	-7.04529	0.0720215	-0.0639307	0.712	84.2697	0.733795	0	
3392	-7.03979	0.0875854	-0.0180331	0.712	84.2697	0.733795	0	
3400	-7.0401	0.0776672	-0.0292767	0.712	84.2697	0.733795	0	
3408	-7.03461	0.0544739	-0.0156831	0.712	84.2697	0.733795	0	
3416	-7.03125	0.00579834	0.0152038	0.712	84.2697	0.733795	0	
3424	-7.03033	0.0505066	0.038203	0.712	84.2697	0.733795	0	
3432	-7.02576	0.348053	-0.00371395	0.712	84.2697	0.733795	0	
3440	-7.02484	0.725861	0.0207007	0.712	84.2697	0.733795	0	
3448	-7.02026	0.669403	0.0463131	0.712	84.2697	0.733795	0	
3456	-7.02057	0.406952	0.0262023	0.928	64.6552	0.733795	0	
3464	-7.01477	0.0866699	0.0244305	0.928	64.6552	0.725861	0	
3472	-7.01508	-0.231171	0.0470594	0.928	64.6552	0.725861	0	
3480	-7.01111	-0.306091	0.0648414	0.928	64.6552	0.725861	0	
3488	-7.01111	-0.225525	0.0406207	0.928	64.6552	0.725861	0	
3496	-7.0105	-0.171204	0.0296957	0.928	64.6552	0.725861	0	
3504	-7.00653	-0.185547	0.00720196	0.928	64.6552	0.725861	0	
3512	-7.00592	-0.19043	0.014268	0.928	64.6552	0.725861	0	
3520	-7.00012	-0.192871	-0.0105158	0.928	64.6552	0.725861	0	
3528	-7.00012	-0.206909	-0.0216957	0.928	64.6552	0.725861	0	
3536	-7.00073	-0.199127	-0.0397595	0.928	64.6552	0.725861	0	
3544	-6.99585	-0.191956	-0.0732027	0.928	64.6552	0.725861	0	
3552	-6.99585	-0.193939	-0.104941	0.928	64.6552	0.725861	0	
3560	-6.99585	-0.179596	-0.0865397	0.928	64.6552	0.725861	0	
3568	-6.99615	-0.159607	-0.075091	0.928	64.6552	0.725861	0	
3576	-6.99036	-0.13092	-0.0522876	0.928	64.6552	0.725861	0	
3584	-6.99036	-0.0912476	-0.0176292	0.928	64.6552	0.725861	0	
3592	-6.99066	-0.0253296	0.0230981	0.928	64.6552	0.725861	0	
3600	-6.99097	0.00701904	0.0368027	0.928	64.6552	0.725861	0	
3608	-6.98578	0.0306702	0.046776	0.928	64.6552	0.725861	0	
3616	-6.98608	0.0791931	0.058777	0.928	64.6552	0.725861	0	
3624	-6.98639	0.106354	0.0642281	0.928	64.6552	0.725861	0	
3632	-6.98639	0.121765	0.064856	0.928	64.6552	0.725861	0	
3640	-6.98608	0.114594	0.0589899	0.928	64.6552	0.725861	0	
3648	-6.9812	0.0938416	0.0424659	0.928	64.6552	0.725861	0	
3656	-6.98151	0.0682068	0.00090921	0.928	64.6552	0.725861	0	
3664	-6.9809	0.06073	-0.0249145	0.928	64.6552	0.725861	0	
3672	-6.98059	0.06073	-0.0242501	0.928	64.6552	0.725861	0	
3680	-6.97601	0.0556946	-0.0160355	0.928	64.6552	0.725861	0	
3688	-6.97571	0.039978	0.0270947	0.928	64.6552	0.725861	0	
3696	-6.97693	0.015564	0.0463227	0.928	64.6552	0.725861	0	
3704	-6.97632	-0.0282288	0.0288617	0.928	64.6552	0.725861	0	
3712	-6.97601	-0.0553894	0.0325668	0.928	64.6552	0.725861	0	
3720	-6.97174	-0.0749207	0.0126001	0.928	64.6552	0.725861	0	
3728	-6.97113	-0.08255	-0.0125705	0.928	64.6552	0.725861	0	
3736	-6.97174	-0.0831604	-0.0497082	0.928	64.6552	0.725861	0	
3744	-6.97144	-0.0878906	-0.0771478	0.928	64.6552	0.725861	0	
3752	-6.96625	-0.0950623	-0.102309	0.928	64.6552	0.725861	0	
3760	-6.96594	-0.090332	-0.109408	0.928	64.6552	0.725861	0	
3768	-6.96564	-0.0721741	-0.0753696	0.928	64.6552	0.725861	0	
3776	-6.96136	-0.0498962	-0.0395367	0.928	64.6552	0.725861	0	
3784	-6.96136	-0.0177002	-0.0758095	0.928	64.6552	0.725861	0	
3792	-6.96136	0.00335693	-0.0836852	0.928	64.6552	0.725861	0	
3800	-6.95557	0.0283813	-0.0527977	0.928	64.6552	0.725861	0	
3808	-6.95679	0.0410461	-0.118706	0.928	64.6552	0.725861	0	
3816	-6.9516	0.0411987	-0.157439	0.928	64.6552	0.725861	0	
3824	-6.95099	0.0486755	0.165278	0.928	64.6552	0.725861	0	
3832	-6.94611	0.0508118	0.676233	0.928	64.6552	0.725861	0	
3840	-6.94641	0.0532532	0.546222	0.928	64.6552	0.725861	0	
3848	-6.94641	0.0559998	0.284909	0.928	64.6552	0.725861	0	
3856	-6.94122	0.0514221	0.0448105	0.928	64.6552	0.725861	0	
3864	-6.94153	0.0460815	-0.271554	0.928	64.6552	0.725861	0	
3872	-6.94153	0.0352478	-0.299974	0.928	64.6552	0.725861	0	
3880	-6.93695	0.0253296	-0.165457	0.928	64.6552	0.725861	0	
3888	-6.93604	0.0195313	-0.101656	0.928	64.6552	0.725861	0	
3896	-6.93634	0.0248718	-0.114061	0.928	64.6552	0.725861	0	
3904	-6.93176	0.0270081	-0.0639355	0.928	64.6552	0.725861	0	
3912	-6.93115	0.0177002	-0.023392	0.928	64.6552	0.725861	0	
3920	-6.93115	0.00274658	-0.0453519	0.928	64.6552	0.725861	0	
3928	-6.92719	-0.0167847	-0.0414814	0.928	64.6552	0.725861	0	
3936	-6.92719	-0.0289917	-0.0299888	0.928	64.6552	0.725861	0	
3944	-6.92657	-0.0413513	-0.0305054	0.928	64.6552	0.725861	0	
3952	-6.92719	-0.0352478	-0.0151525	0.928	64.6552	0.725861	0	
3960	-6.92688	-0.0241089	-0.0186135	0.928	64.6552	0.725861	0	
3968	-6.9223	-0.0146484	-0.0258472	0.928	64.6552	0.725861	0	
3976	-6.9223	0.00167847	-0.0150648	0.928	64.6552	0.725861	0	
3984	-6.92169	0.0192261	0.0520406	0.928	64.6552	0.725861	0	
3992	-6.92169	0.014801	0.0529032	0.928	64.6552	0.725861	0	
4000	-6.9223	0.00747681	0.0345451	0.928	64.6552	0.725861	0	
4008	-6.92139	0.012207	0.0692469	0.928	64.6552	0.725861	0	
4016	-6.922	0.000152588	0.0748935	0.928	64.6552	0.725861	0	
4024	-6.92139	-0.0282288	0.0788689	0.928	64.6552	0.725861	0	
4032	-6.9162	-0.0634766	0.060773	0.928	64.6552	0.725861	0	
4040	-6.91711	-0.0732422	0.0323932	0.928	64.6552	0.725861	0	
4048	-6.91681	-0.0758362	0.000186126	0.928	64.6552	0.725861	0	
4056	-6.91742	-0.0756836	0.0004382	0.928	64.6552	0.725861	0	
4064	-6.9223	-0.067749	0.00999774	0.928	64.6552	0.725861	0	
4072	-6.92169	-0.0569153	0.0120146	0.928	64.6552	0.725861	0	
4080	-6.92169	-0.0489807	0.00656746	0.928	64.6552	0.725861	0	
4088	-6.922	-0.0411987	0.0012593	0.928	64.6552	0.725861	0	
4096	-6.92169	-0.0526428	-0.0341615	0.928	64.6552	0.725861	0	
4104	-6.92291	-0.0994873	-0.0426267	0.928	64.6552	0.725861	0	
4112	-6.92139	-0.00396729	-0.0514099	0.928	64.6552	0.725861	0	
4120	-6.922	0.349579	-0.0500129	0.928	64.6552	0.725861	0	
4128	-6.9223	0.748901	-0.0401094	0.928	64.6552	0.725861	0	
4136	-6.922	0.644989	-0.0392793	0.928	64.6552	0.725861	0	
4144	-6.92688	0.396118	-0.0471592	0.688	87.2093	0.748901	0	
4152	-6.92596	0.018158	-0.0419386	0.688	87.2093	0.748901	0	
4160	-6.92719	-0.296478	-0.0244557	0.688	87.2093	0.748901	0	
4168	-6.92627	-0.327301	-0.0109858	0.688	87.2093	0.748901	0	
4176	-6.92932	-0.239105	0.0166047	0.688	87.2093	0.748901	0	
4184	-6.93176	-0.175629	0.0230505	0.688	87.2093	0.748901	0	
4192	-6.93176	-0.139618	0.0432148	0.688	87.2093	0.748901	0	
4200	-6.93604	-0.103912	0.0462748	0.688	87.2093	0.748901	0	
4208	-6.93665	-0.0827026	0.0309158	0.688	87.2093	0.748901	0	
4216	-6.93726	-0.0619507	0.0337234	0.688	87.2093	0.748901	0	
4224	-6.94122	-0.0415039	0.0264901	0.688	87.2093	0.748901	0	
4232	-6.94641	-0.0131226	0.0204598	0.688	87.2093	0.748901	0	
4240	-6.94611	0.00717163	0.0187135	0.688	87.2093	0.748901	0	
4248	-6.95129	0.0259399	0.00916406	0.688	87.2093	0.748901	0	
4256	-6.95129	0.0460815	0.00481811	0.688	87.2093	0.748901	0	
4264	-6.95648	0.0720215	-0.00731327	0.688	87.2093	0.748901	0	
4272	-6.96075	0.101166	-0.0183631	0.688	87.2093	0.748901	0	
4280	-6.96594	0.109711	-0.023609	0.688	87.2093	0.748901	0	
4288	-6.96625	0.0999451	-0.00827382	0.688	87.2093	0.748901	0	
4296	-6.97113	0.0878906	0.00140287	0.688	87.2093	0.748901	0	
4304	-6.97632	0.0752258	-0.00700532	0.688	87.2093	0.748901	0	
4312	-6.98059	0.0866699	-0.0176474	0.688	87.2093	0.748901	0	
4320	-6.9812	0.0837708	-0.0285231	0.688	87.2093	0.748901	0	
4328	-6.98608	0.0708008	-0.0240716	0.688	87.2093	0.748901	0	
4336	-6.99127	0.058136	-0.0314217	0.688	87.2093	0.748901	0	
4344	-6.99585	0.0422668	-0.0185408	0.688	87.2093	0.748901	0	
4352	-6.99677	0.00137329	-0.00464388	0.688	87.2093	0.748901	0	
4360	-7.00104	-0.0564575	0.00901169	0.688	87.2093	0.748901	0	
4368	-7.00592	-0.122375	0.0421872	0.688	87.2093	0.748901	0	
4376	-7.0108	-0.205078	0.0752114	0.688	87.2093	0.748901	0	
4384	-7.01019	-0.281677	0.0567782	0.688	87.2093	0.748901	0	
4392	-7.01538	-0.336609	0.0348197	0.688	87.2093	0.748901	0	
4400	-7.01965	-0.347137	0.0537774	0.688	87.2093	0.748901	0	
4408	-7.02332	-0.328674	0.0546717	0.688	87.2093	0.748901	0	
4416	-7.02515	-0.297241	0.0190299	0.688	87.2093	0.748901	0	
4424	-7.03064	-0.260315	-0.0484175	0.688	87.2093	0.748901	0	
4432	-7.03552	-0.244446	-0.0735301	0.688	87.2093	0.748901	0	
4440	-7.03552	-0.244904	-0.0752684	0.688	87.2093	0.748901	0	
4448	-7.03979	-0.266418	-0.0684098	0.688	87.2093	0.748901	0	
4456	-7.04254	-0.266113	-0.0720391	0.688	87.2093	0.748901	0	
4464	-7.04559	-0.261078	-0.104734	0.688	87.2093	0.748901	0	
4472	-7.05017	-0.240479	-0.135516	0.688	87.2093	0.748901	0	
4480	-7.04987	-0.193024	-0.10451	0.688	87.2093	0.748901	0	
4488	-7.05444	-0.147858	-0.0662091	0.688	87.2093	0.748901	0	
4496	-7.05444	-0.110626	-0.162583	0.688	87.2093	0.748901	0	
4504	-7.05963	-0.0794983	-0.145759	0.688	87.2093	0.748901	0	
4512	-7.06299	-0.0476074	0.24443	0.688	87.2093	0.748901	0	
4520	-7.06451	-0.0192261	0.772163	0.688	87.2093	0.748901	0	
4528	-7.06818	-0.0294495	0.54696	0.688	87.2093	0.748901	0	
4536	-7.07001	-0.0299072	0.328117	0.688	87.2093	0.748901	0	
4544	-7.0694	-0.0205994	-0.018336	0.688	87.2093	0.748901	0	
4552	-7.07458	-0.00946045	-0.342082	0.688	87.2093	0.748901	0	
4560	-7.07489	-0.0160217	-0.318413	0.688	87.2093	0.748901	0	
4568	-7.07947	-0.0218201	-0.215134	0.688	87.2093	0.748901	0	
4576	-7.07977	-0.0268555	-0.180765	0.688	87.2093	0.748901	0	
4584	-7.07916	-0.0177002	-0.141467	0.688	87.2093	0.748901	0	
4592	-7.08435	0.00946045	-0.0631965	0.688	87.2093	0.748901	0	
4600	-7.08374	0.042572	-0.0293507	0.688	87.2093	0.748901	0	
4608	-7.08466	0.0648499	-0.0283593	0.688	87.2093	0.748901	0	
4616	-7.08954	0.0842285	-0.0330234	0.688	87.2093	0.748901	0	
4624	-7.08923	0.0849915	-0.00274246	0.688	87.2093	0.748901	0	
4632	-7.08984	0.0776672	0.0221757	0.688	87.2093	0.748901	0	
4640	-7.08923	0.0752258	0.0311578	0.688	87.2093	0.748901	0	
4648	-7.08923	0.08255	0.0234124	0.688	87.2093	0.748901	0	
4656	-7.08893	0.0863647	0.0250582	0.688	87.2093	0.748901	0	
4664	-7.09442	0.0837708	0.0510859	0.688	87.2093	0.748901	0	
4672	-7.09412	0.0704956	0.0578571	0.688	87.2093	0.748901	0	
4680	-7.09412	0.0727844	0.0399624	0.688	87.2093	0.748901	0	
4688	-7.09503	0.0801086	0.0200281	0.688	87.2093	0.748901	0	
4696	-7.09442	0.0971985	0.000347339	0.688	87.2093	0.748901	0	
4704	-7.09412	0.123138	0.0338226	0.688	87.2093	0.748901	0	
4712	-7.09442	0.147552	0.0457298	0.688	87.2093	0.748901	0	
4720	-7.09381	0.167084	0.0451491	0.688	87.2093	0.748901	0	
4728	-7.09412	0.194855	0.054832	0.688	87.2093	0.748901	0	
4736	-7.09381	0.196075	0.0721351	0.688	87.2093	0.748901	0	
4744	-7.09412	0.200043	0.0578991	0.688	87.2093	0.748901	0	
4752	-7.09381	0.201111	0.030019	0.688	87.2093	0.748901	0	
4760	-7.09412	0.162201	0.00315199	0.688	87.2093	0.748901	0	
4768	-7.08862	0.0785828	-0.0494358	0.688	87.2093	0.748901	0	
4776	-7.08923	0.00976563	-0.0977016	0.688	87.2093	0.748901	0	
4784	-7.08923	0.184631	-0.128728	0.688	87.2093	0.748901	0	
4792	-7.08954	0.579071	-0.109855	0.688	87.2093	0.748901	0	
4800	-7.08954	0.769653	-0.0718184	0.688	87.2093	0.748901	0	
4808	-7.08405	0.501862	-0.0324975	0.672	89.2857	0.748901	0	
4816	-7.08405	0.180206	0.0142756	0.672	89.2857	0.769653	0	
4824	-7.08405	-0.236816	0.031798	0.672	89.2857	0.769653	0	
4832	-7.07947	-0.41214	0.0323931	0.672	89.2857	0.769653	0	
4840	-7.07947	-0.351868	-0.0041652	0.672	89.2857	0.769653	0	
4848	-7.07977	-0.261383	-0.00805926	0.672	89.2857	0.769653	0	
4856	-7.07458	-0.220642	-0.0237269	0.672	89.2857	0.769653	0	
4864	-7.07458	-0.20752	-0.0291687	0.672	89.2857	0.769653	0	
4872	-7.0694	-0.186768	0.00561985	0.672	89.2857	0.769653	0	
4880	-7.0697	-0.176392	0.0300769	0.672	89.2857	0.769653	0	
4888	-7.06543	-0.151978	0.0381203	0.672	89.2857	0.769653	0	
4896	-7.05994	-0.12558	0.0384296	0.672	89.2857	0.769653	0	
4904	-7.05963	-0.0894165	0.0510739	0.672	89.2857	0.769653	0	
4912	-7.05414	-0.0195313	0.0715503	0.672	89.2857	0.769653	0	
4920	-7.05505	0.0439453	0.0267045	0.672	89.2857	0.769653	0	
4928	-7.04956	0.0985718	0.00503854	0.672	89.2857	0.769653	0	
4936	-7.04559	0.126648	0.00151552	0.672	89.2857	0.769653	0	
4944	-7.04498	0.149994	0.00383352	0.672	89.2857	0.769653	0	
4952	-7.03979	0.177155	-0.0202301	0.672	89.2857	0.769653	0	
4960	-7.03552	0.187988	-0.0342324	0.672	89.2857	0.769653	0	
4968	-7.03552	0.179291	-0.0486185	0.672	89.2857	0.769653	0	
4976	-7.02972	0.169373	-0.0475589	0.672	89.2857	0.769653	0	
4984	-7.02515	0.152283	-0.0241447	0.672	89.2857	0.769653	0	
4992	-7.02576	0.137329	0.00709074	0.672	89.2857	0.769653	0	
5000	-7.02057	0.124359	0.0228823	0.672	89.2857	0.769653	0	
5008	-7.01569	0.0869751	0.043061	0.672	89.2857	0.769653	0	
5016	-7.01019	0.0364685	0.03534	0.672	89.2857	0.769653	0	
5024	-7.00989	-0.0259399	0.0185545	0.672	89.2857	0.769653	0	
5032	-7.00623	-0.0585938	0.0139941	0.672	89.2857	0.769653	0	
5040	-7.00073	-0.0634766	0.0235067	0.672	89.2857	0.769653	0	
5048	-6.99615	-0.0592041	0.0160485	0.672	89.2857	0.769653	0	
5056	-6.99066	-0.0401306	-0.00736411	0.672	89.2857	0.769653	0	
5064	-6.98639	0.000610352	-0.0428623	0.672	89.2857	0.769653	0	
5072	-6.98578	0.0422668	-0.0382494	0.672	89.2857	0.769653	0	
5080	-6.9809	0.0631714	-0.0345681	0.672	89.2857	0.769653	0	
5088	-6.97571	0.0584412	-0.0412546	0.672	89.2857	0.769653	0	
5096	-6.97174	0.0445557	-0.0501852	0.672	89.2857	0.769653	0	
5104	-6.96594	0.020752	-0.048077	0.672	89.2857	0.769653	0	
5112	-6.96167	-0.00106812	-0.0238767	0.672	89.2857	0.769653	0	
5120	-6.9574	-0.0308228	0.0241347	0.672	89.2857	0.769653	0	
5128	-6.95648	-0.0669861	-0.00846236	0.672	89.2857	0.769653	0	
5136	-6.9516	-0.108643	-0.0490615	0.672	89.2857	0.769653	0	
5144	-6.94611	-0.115051	-0.0420319	0.672	89.2857	0.769653	0	
5152	-6.94183	-0.09552	-0.0220252	0.672	89.2857	0.769653	0	
5160	-6.93604	-0.0720215	-0.0671674	0.672	89.2857	0.769653	0	
5168	-6.93146	-0.030365	-0.202197	0.672	89.2857	0.769653	0	
5176	-6.93176	-0.0193787	-0.0428281	0.672	89.2857	0.769653	0	
5184	-6.92719	-0.0157166	0.47235	0.672	89.2857	0.769653	0	
5192	-6.92261	-0.0169373	0.729125	0.672	89.2857	0.769653	0	
5200	-6.91681	-0.0291443	0.374654	0.672	89.2857	0.769653	0	
5208	-6.91742	-0.0465393	0.150554	0.672	89.2857	0.769653	0	
5216	-6.91193	-0.0537109	-0.261723	0.672	89.2857	0.769653	0	
5224	-6.90704	-0.0584412	-0.391004	0.672	89.2857	0.769653	0	
5232	-6.90186	-0.0436401	-0.269982	0.672	89.2857	0.769653	0	
5240	-6.90216	-0.0222778	-0.17987	0.672	89.2857	0.769653	0	
5248	-6.89758	-0.0193787	-0.151674	0.672	89.2857	0.769653	0	
5256	-6.8924	-0.0292969	-0.116308	0.672	89.2857	0.769653	0	
5264	-6.8924	-0.0344849	-0.0569559	0.672	89.2857	0.769653	0	
5272	-6.88721	-0.0300598	-0.0537312	0.672	89.2857	0.769653	0	
5280	-6.88782	-0.0146484	-0.0515908	0.672	89.2857	0.769653	0	
5288	-6.88263	0.000152588	-0.0497571	0.672	89.2857	0.769653	0	
5296	-6.87744	0.00671387	-0.0301882	0.672	89.2857	0.769653	0	
5304	-6.87744	0.0189209	0.0391229	0.672	89.2857	0.769653	0	
5312	-6.87286	0.0294495	0.075626	0.672	89.2857	0.769653	0	
5320	-6.87256	0.0244141	0.0957398	0.672	89.2857	0.769653	0	
5328	-6.86798	0.0242615	0.0857466	0.672	89.2857	0.769653	0	
5336	-6.86737	0.0236511	0.0896104	0.672	89.2857	0.769653	0	
5344	-6.86249	0.0146484	0.110831	0.672	89.2857	0.769653	0	
5352	-6.8631	-0.00640869	0.103499	0.672	89.2857	0.769653	0	
5360	-6.85791	-0.0320435	0.0689874	0.672	89.2857	0.769653	0	
5368	-6.85791	-0.0317383	0.0504499	0.672	89.2857	0.769653	0	
5376	-6.85791	-0.0233459	0.0305715	0.672	89.2857	0.769653	0	
5384	-6.85303	-0.0151062	0.0190265	0.672	89.2857	0.769653	0	
5392	-6.85242	-0.00991821	0.0170408	0.672	89.2857	0.769653	0	
5400	-6.85272	-0.00976563	-0.0175835	0.672	89.2857	0.769653	0	
5408	-6.85303	-0.0187683	-0.0583102	0.672	89.2857	0.769653	0	
5416	-6.85303	-0.0265503	-0.114959	0.672	89.2857	0.769653	0	
5424	-6.85272	-0.0312805	-0.124659	0.672	89.2857	0.769653	0	
5432	-6.85272	-0.0648499	-0.104683	0.672	89.2857	0.769653	0	
5440	-6.85333	-0.0717163	-0.0924299	0.672	89.2857	0.769653	0	
5448	-6.85791	0.114899	-0.0688797	0.672	89.2857	0.769653	0	
5456	-6.85791	0.51712	-0.01074	0.672	89.2857	0.769653	0	
5464	-6.8631	0.687866	0.0507726	0.672	89.2857	0.769653	0	
5472	-6.86218	0.494537	0.0825408	0.672	89.2857	0.769653	0	
5480	-6.86768	0.230865	0.0802632	0.664	90.3614	0.687866	0	
5488	-6.86737	-0.102386	0.0738558	0.664	90.3614	0.687866	0	
5496	-6.87256	-0.245667	0.0542015	0.664	90.3614	0.687866	0	
5504	-6.87714	-0.209961	0.0411567	0.664	90.3614	0.687866	0	
5512	-6.88202	-0.1091	0.016565	0.664	90.3614	0.687866	0	
5520	-6.88721	-0.0450134	-0.0167947	0.664	90.3614	0.687866	0	
5528	-6.89209	-0.0109863	-0.0665291	0.664	90.3614	0.687866	0	
5536	-6.89514	0.0210571	-0.0657871	0.664	90.3614	0.687866	0	
5544	-6.89789	0.0431824	-0.0402117	0.664	90.3614	0.687866	0	
5552	-6.90247	0.0460815	-0.0254469	0.664	90.3614	0.687866	0	
5560	-6.90704	0.0434875	0.0245915	0.664	90.3614	0.687866	0	
5568	-6.91223	0.0204468	0.0261502	0.664	90.3614	0.687866	0	
5576	-6.91711	-0.00732422	0.0284573	0.664	90.3614	0.687866	0	
5584	-6.92505	-0.014801	0.0310735	0.664	90.3614	0.687866	0	
5592	-6.92993	-0.0292969	0.0159867	0.664	90.3614	0.687866	0	
5600	-6.93573	-0.027771	-0.00897456	0.664	90.3614	0.687866	0	
5608	-6.94092	-0.0108337	-0.0172425	0.664	90.3614	0.687866	0	
5616	-6.94672	-0.00534058	-0.0298513	0.664	90.3614	0.687866	0	
5624	-6.9516	-0.0186157	-0.014756	0.664	90.3614	0.687866	0	
5632	-6.95679	-0.0268555	0.00833267	0.664	90.3614	0.687866	0	
5640	-6.96106	-0.0292969	0.00122572	0.664	90.3614	0.687866	0	
5648	-6.96594	-0.0552368	-0.0179562	0.664	90.3614	0.687866	0	
5656	-6.97144	-0.072937	-0.020497	0.664	90.3614	0.687866	0	
5664	-6.97632	-0.0895691	-0.0114688	0.664	90.3614	0.687866	0	
5672	-6.98059	-0.113525	0.00364885	0.664	90.3614	0.687866	0	
5680	-6.98578	-0.13916	0.00970505	0.664	90.3614	0.687866	0	
5688	-6.99066	-0.175018	0.00770895	0.664	90.3614	0.687866	0	
5696	-6.99615	-0.223999	0.0316724	0.664	90.3614	0.687866	0	
5704	-7.00073	-0.247803	0.0562444	0.664	90.3614	0.687866	0	
5712	-7.00531	-0.246887	0.0403999	0.664	90.3614	0.687866	0	
5720	-7.00531	-0.261841	0.0282532	0.664	90.3614	0.687866	0	
5728	-7.00989	-0.256653	0.027083	0.664	90.3614	0.687866	0	
5736	-7.01569	-0.234985	0.0301912	0.664	90.3614	0.687866	0	
5744	-7.02057	-0.21347	0.0146751	0.664	90.3614	0.687866	0	
5752	-7.02515	-0.174713	-0.0295518	0.664	90.3614	0.687866	0	
5760	-7.02545	-0.135345	-0.0456905	0.664	90.3614	0.687866	0	
5768	-7.02972	-0.100098	-0.0475287	0.664	90.3614	0.687866	0	
5776	-7.03491	-0.0830078	-0.0337527	0.664	90.3614	0.687866	0	
5784	-7.03522	-0.0730896	-0.0229394	0.664	90.3614	0.687866	0	
5792	-7.03979	-0.0805664	-0.0442003	0.664	90.3614	0.687866	0	
5800	-7.0401	-0.0854492	-0.0988154	0.664	90.3614	0.687866	0	
5808	-7.04437	-0.080719	-0.121018	0.664	90.3614	0.687866	0	
5816	-7.04559	-0.0694275	-0.0829866	0.664	90.3614	0.687866	0	
5824	-7.04498	-0.0747681	-0.105745	0.664	90.3614	0.687866	0	
5832	-7.04498	-0.0764465	-0.189331	0.664	90.3614	0.687866	0	
5840	-7.04529	-0.0445557	-0.0498828	0.664	90.3614	0.687866	0	
5848	-7.04468	-0.0205994	0.456651	0.664	90.3614	0.687866	0	
5856	-7.04468	0.00228882	0.63436	0.664	90.3614	0.687866	0	
5864	-7.04041	0.00137329	0.350665	0.664	90.3614	0.687866	0	
5872	-7.03979	-0.00686646	0.138501	0.664	90.3614	0.687866	0	
5880	-7.04071	0.0114441	-0.198594	0.664	90.3614	0.687866	0	
5888	-7.03461	0.0427246	-0.317282	0.664	90.3614	0.687866	0	
5896	-7.03491	0.0483704	-0.264929	0.664	90.3614	0.687866	0	
5904	-7.03522	0.0556946	-0.164939	0.664	90.3614	0.687866	0	
5912	-7.03003	0.0485229	-0.10998	0.664	90.3614	0.687866	0	
5920	-7.03033	0.0395203	-0.0584983	0.664	90.3614	0.687866	0	
5928	-7.02545	0.0424194	0.00688254	0.664	90.3614	0.687866	0	
5936	-7.02515	0.0561523	0.0378406	0.664	90.3614	0.687866	0	
5944	-7.02087	0.0720215	0.0271423	0.664	90.3614	0.687866	0	
5952	-7.02087	0.0874329	0.0305284	0.664	90.3614	0.687866	0	
5960	-7.01569	0.111237	0.021475	0.664	90.3614	0.687866	0	
5968	-7.01233	0.128937	0.00627456	0.664	90.3614	0.687866	0	
5976	-7.0105	0.145111	0.0118568	0.664	90.3614	0.687866	0	
5984	-7.00592	0.148621	-0.015423	0.664	90.3614	0.687866	0	
5992	-7.00043	0.141144	-0.0135261	0.664	90.3614	0.687866	0	
6000	-7.00104	0.119476	0.0259524	0.664	90.3614	0.687866	0	
6008	-6.99615	0.0837708	0.0467304	0.664	90.3614	0.687866	0	
6016	-6.99066	0.0605774	0.0305795	0.664	90.3614	0.687866	0	
6024	-6.98578	0.0483704	0.0289939	0.664	90.3614	0.687866	0	
6032	-6.9812	0.0605774	0.049412	0.664	90.3614	0.687866	0	
6040	-6.97784	0.0823975	0.0317698	0.664	90.3614	0.687866	0	
6048	-6.97266	0.0897217	0.0315941	0.664	90.3614	0.687866	0	
6056	-6.96686	0.0875854	0.0303391	0.664	90.3614	0.687866	0	
6064	-6.96167	0.0804138	0.0163056	0.664	90.3614	0.687866	0	
6072	-6.95557	0.0778198	0.00856444	0.664	90.3614	0.687866	0	
6080	-6.94794	0.0502014	-0.0103858	0.664	90.3614	0.687866	0	
6088	-6.94122	0.00244141	-0.0572948	0.664	90.3614	0.687866	0	
6096	-6.93359	0.0993347	-0.0682471	0.664	90.3614	0.687866	0	
6104	-6.92657	0.425415	-0.0484577	0.664	90.3614	0.687866	0	
6112	-6.91681	0.764771	-0.0743063	0.664	90.3614	0.687866	0	
6120	-6.90918	0.625	-0.0683269	0.664	90.3614	0.687866	0	
6128	-6.90186	0.381317	-0.0389501	0.648	92.5926	0.764771	0	
6136	-6.89209	0.00259399	-0.0251088	0.648	92.5926	0.764771	0	
6144	-6.88171	-0.364838	0.00682314	0.648	92.5926	0.764771	0	
6152	-6.87225	-0.39505	0.0327068	0.648	92.5926	0.764771	0	
6160	-6.86249	-0.286255	0.0575713	0.648	92.5926	0.764771	0	
6168	-6.85242	-0.189819	0.0620654	0.648	92.5926	0.764771	0	
6176	-6.84235	-0.124054	0.0651202	0.648	92.5926	0.764771	0	
6184	-6.82953	-0.0740051	0.0367193	0.648	92.5926	0.764771	0	
6192	-6.81824	-0.0448608	0.0109076	0.648	92.5926	0.764771	0	
6200	-6.80847	-0.0506592	0.00328764	0.648	92.5926	0.764771	0	
6208	-6.7981	-0.068512	0.0108619	0.648	92.5926	0.764771	0	
6216	-6.78436	-0.075531	-0.015448	0.648	92.5926	0.764771	0	
6224	-6.77399	-0.0662231	-0.0423792	0.648	92.5926	0.764771	0	
6232	-6.76056	-0.0352478	-0.0130541	0.648	92.5926	0.764771	0	
6240	-6.74927	-0.0276184	-0.00313739	0.648	92.5926	0.764771	0	
6248	-6.7392	-0.0396729	0.0131559	0.648	92.5926	0.764771	0	
6256	-6.72516	-0.0561523	-0.00485022	0.648	92.5926	0.764771	0	
6264	-6.71478	-0.0415039	-0.0321778	0.648	92.5926	0.764771	0	
6272	-6.70166	-0.0253296	-0.0137704	0.648	92.5926	0.764771	0	
6280	-6.69067	-0.0265503	0.0197929	0.648	92.5926	0.764771	0	
6288	-6.6806	-0.00564575	0.00209073	0.648	92.5926	0.764771	0	
6296	-6.66718	0.0222778	0.00244045	0.648	92.5926	0.764771	0	
6304	-6.65161	0.0222778	-0.00851935	0.648	92.5926	0.764771	0	
6312	-6.64093	0.0146484	-0.0187138	0.648	92.5926	0.764771	0	
6320	-6.63086	0.00747681	-0.0176806	0.648	92.5926	0.764771	0	
6328	-6.62109	-0.00396729	-0.0115337	0.648	92.5926	0.764771	0	
6336	-6.61133	-0.0302124	-0.00611008	0.648	92.5926	0.764771	0	
6344	-6.60156	-0.0770569	0.0055656	0.648	92.5926	0.764771	0	
6352	-6.5921	-0.087738	0.039333	0.648	92.5926	0.764771	0	
6360	-6.58173	-0.0862122	0.0548086	0.648	92.5926	0.764771	0	
6368	-6.57227	-0.0814819	0.0593787	0.648	92.5926	0.764771	0	
6376	-6.56219	-0.0569153	0.04742	0.648	92.5926	0.764771	0	
6384	-6.55243	-0.0218201	0.0407514	0.648	92.5926	0.764771	0	
6392	-6.54266	-0.000305176	0.0290163	0.648	92.5926	0.764771	0	
6400	-6.5332	-0.00930786	-0.0139834	0.648	92.5926	0.764771	0	
6408	-6.5271	-0.0505066	-0.0562207	0.648	92.5926	0.764771	0	
6416	-6.51733	-0.0701904	-0.0939811	0.648	92.5926	0.764771	0	
6424	-6.50757	-0.0950623	-0.0792808	0.648	92.5926	0.764771	0	
6432	-6.4975	-0.083313	-0.0386497	0.648	92.5926	0.764771	0	
6440	-6.49261	-0.0798035	-0.03987	0.648	92.5926	0.764771	0	
6448	-6.48285	-0.0827026	-0.0790945	0.648	92.5926	0.764771	0	
6456	-6.47308	-0.0778198	-0.112833	0.648	92.5926	0.764771	0	
6464	-6.4682	-0.0636292	-0.0798611	0.648	92.5926	0.764771	0	
6472	-6.45905	-0.0613403	-0.0606827	0.648	92.5926	0.764771	0	
6480	-6.45355	-0.0439453	-0.146995	0.648	92.5926	0.764771	0	
6488	-6.44775	-0.0364685	-0.103306	0.648	92.5926	0.764771	0	
6496	-6.43951	-0.0247192	0.273108	0.648	92.5926	0.764771	0	
6504	-6.43372	-0.000915527	0.729622	0.648	92.5926	0.764771	0	
6512	-6.42853	0.0239563	0.474443	0.648	92.5926	0.764771	0	
6520	-6.42029	0.0390625	0.29497	0.648	92.5926	0.764771	0	
6528	-6.41357	0.0448608	-0.0307974	0.648	92.5926	0.764771	0	
6536	-6.40991	0.0509644	-0.437782	0.648	92.5926	0.764771	0	
6544	-6.40472	0.0535583	-0.394124	0.648	92.5926	0.764771	0	
6552	-6.39984	0.0485229	-0.246748	0.648	92.5926	0.764771	0	
6560	-6.39404	0.0482178	-0.165909	0.648	92.5926	0.764771	0	
6568	-6.38947	0.0419617	-0.0977419	0.648	92.5926	0.764771	0	
6576	-6.38641	0.0244141	-0.00848304	0.648	92.5926	0.764771	0	
6584	-6.38458	0.00991821	0.0549395	0.648	92.5926	0.764771	0	
6592	-6.3797	0.00335693	0.0450602	0.648	92.5926	0.764771	0	
6600	-6.37482	-0.00198364	0.0125943	0.648	92.5926	0.764771	0	
6608	-6.37054	-0.00228882	0.00539308	0.648	92.5926	0.764771	0	
6616	-6.37024	0.00900269	0.0223533	0.648	92.5926	0.764771	0	
6624	-6.36475	0.0285339	0.0656612	0.648	92.5926	0.764771	0	
6632	-6.36475	0.0505066	0.0558131	0.648	92.5926	0.764771	0	
6640	-6.35986	0.0657654	0.0180738	0.648	92.5926	0.764771	0	
6648	-6.35986	0.0770569	-0.0144198	0.648	92.5926	0.764771	0	
6656	-6.35437	0.0976563	0.0134268	0.648	92.5926	0.764771	0	
6664	-6.35498	0.114746	0.0274534	0.648	92.5926	0.764771	0	
6672	-6.35468	0.109711	-0.00722737	0.648	92.5926	0.764771	0	
6680	-6.3501	0.109253	0.00413976	0.648	92.5926	0.764771	0	
6688	-6.3501	0.0997925	0.0424574	0.648	92.5926	0.764771	0	
6696	-6.34979	0.0926208	0.0367394	0.648	92.5926	0.764771	0	
6704	-6.34949	0.0787354	0.0222714	0.648	92.5926	0.764771	0	
6712	-6.3501	0.058136	0.0155406	0.648	92.5926	0.764771	0	
6720	-6.34979	0.0634766	0.0119407	0.648	92.5926	0.764771	0	
6728	-6.3501	0.0900269	-0.00865585	0.648	92.5926	0.764771	0	
6736	-6.35071	0.106506	-0.0653038	0.648	92.5926	0.764771	0	
6744	-6.3504	0.109558	-0.0566998	0.648	92.5926	0.764771	0	
6752	-6.35071	0.0975037	-0.0409276	0.648	92.5926	0.764771	0	
6760	-6.34949	0.0997925	-0.0394592	0.648	92.5926	0.764771	0	
6768	-6.35498	0.0784302	-0.0135708	0.648	92.5926	0.764771	0	
6776	-6.35559	0.0421143	0.0319946	0.648	92.5926	0.764771	0	
6784	-6.36017	-0.0177002	0.0654428	0.648	92.5926	0.764771	0	
6792	-6.36475	-0.0241089	0.0614204	0.648	92.5926	0.764771	0	
6800	-6.36414	0.171204	0.0100368	0.648	92.5926	0.764771	0	
6808	-6.36993	0.541534	0.00138187	0.648	92.5926	0.764771	0	
6816	-6.37512	0.632477	-0.0326036	0.648	92.5926	0.764771	0	
6824	-6.37939	0.409851	-0.0102179	0.704	85.2273	0.632477	0	
6832	-6.38428	0.117798	-0.0126267	0.704	85.2273	0.632477	0	
6840	-6.38977	-0.24826	-0.0280533	0.704	85.2273	0.632477	0	
6848	-6.39496	-0.391388	-0.0273439	0.704	85.2273	0.632477	0	
6856	-6.40411	-0.332184	-0.011158	0.704	85.2273	0.632477	0	
6864	-6.40961	-0.270233	-0.0234204	0.704	85.2273	0.632477	0	
6872	-6.41357	-0.206146	-0.00783848	0.704	85.2273	0.632477	0	
6880	-6.41968	-0.159607	-0.0126076	0.704	85.2273	0.632477	0	
6888	-6.42914	-0.115814	-0.0111228	0.704	85.2273	0.632477	0	
6896	-6.43402	-0.0854492	0.00966009	0.704	85.2273	0.632477	0	
6904	-6.4389	-0.123901	0.0297006	0.704	85.2273	0.632477	0	
6912	-6.44897	-0.128174	0.0340726	0.704	85.2273	0.632477	0	
6920	-6.45325	-0.050354	0.0294293	0.704	85.2273	0.632477	0	
6928	-6.45874	0.0102234	0.0343174	0.704	85.2273	0.632477	0	
6936	-6.46729	0.0614929	0.0353988	0.704	85.2273	0.632477	0	
6944	-6.47339	0.102539	0.0205995	0.704	85.2273	0.632477	0	
6952	-6.47827	0.098114	0.0171557	0.704	85.2273	0.632477	0	
6960	-6.48193	0.085144	0.00916128	0.704	85.2273	0.632477	0	
6968	-6.48956	0.065918	-0.013225	0.704	85.2273	0.632477	0	
6976	-6.49811	0.0352478	-0.0277657	0.704	85.2273	0.632477	0	
6984	-6.50269	0.0260925	-0.032745	0.704	85.2273	0.632477	0	
6992	-6.50818	0.0343323	-0.0439453	0.704	85.2273	0.632477	0	
7000	-6.51276	0.0390625	-0.0504066	0.704	85.2273	0.632477	0	
7008	-6.51764	0.0482178	-0.036825	0.704	85.2273	0.632477	0	
7016	-6.52069	0.0268555	-0.0127362	0.704	85.2273	0.632477	0	
7024	-6.52222	0.00808716	0.00768083	0.704	85.2273	0.632477	0	
7032	-6.52802	-0.0088501	0.0109798	0.704	85.2273	0.632477	0	
7040	-6.53259	-0.0291443	0.0124154	0.704	85.2273	0.632477	0	
7048	-6.53229	-0.0578308	0.0419993	0.704	85.2273	0.632477	0	
7056	-6.53748	-0.10437	0.0666249	0.704	85.2273	0.632477	0	
7064	-6.54266	-0.148315	0.0415149	0.704	85.2273	0.632477	0	
7072	-6.54236	-0.170288	0.0258456	0.704	85.2273	0.632477	0	
7080	-6.54175	-0.171356	0.00705656	0.704	85.2273	0.632477	0	
7088	-6.54724	-0.175781	0.0102957	0.704	85.2273	0.632477	0	
7096	-6.54633	-0.171661	-0.00173289	0.704	85.2273	0.632477	0	
7104	-6.55182	-0.167542	-0.051083	0.704	85.2273	0.632477	0	
7112	-6.55182	-0.170898	-0.0697503	0.704	85.2273	0.632477	0	
7120	-6.55212	-0.169067	-0.0412856	0.704	85.2273	0.632477	0	
7128	-6.55182	-0.158691	-0.0124965	0.704	85.2273	0.632477	0	
7136	-6.55151	-0.146484	-0.00595941	0.704	85.2273	0.632477	0	
7144	-6.5567	-0.127716	-0.0470363	0.704	85.2273	0.632477	0	
7152	-6.55701	-0.103302	-0.0615226	0.704	85.2273	0.632477	0	
7160	-6.55731	-0.0856018	-0.0771599	0.704	85.2273	0.632477	0	
7168	-6.55731	-0.0572205	-0.0617676	0.704	85.2273	0.632477	0	
7176	-6.5567	-0.032959	-0.104101	0.704	85.2273	0.632477	0	
7184	-6.55731	-0.0190735	-0.164119	0.704	85.2273	0.632477	0	
7192	-6.55701	-0.0686646	0.0204856	0.704	85.2273	0.632477	0	
7200	-6.5564	-0.0863647	0.514477	0.704	85.2273	0.632477	0	
7208	-6.55762	-0.0732422	0.606817	0.704	85.2273	0.632477	0	
7216	-6.5567	-0.0704956	0.339094	0.704	85.2273	0.632477	0	
7224	-6.55701	-0.0828552	0.12126	0.704	85.2273	0.632477	0	
7232	-6.55701	-0.0856018	-0.256684	0.704	85.2273	0.632477	0	
7240	-6.5567	-0.0758362	-0.360247	0.704	85.2273	0.632477	0	
7248	-6.55731	-0.0569153	-0.242826	0.704	85.2273	0.632477	0	
7256	-6.5625	-0.0460815	-0.204543	0.704	85.2273	0.632477	0	
7264	-6.56189	-0.0630188	-0.148819	0.704	85.2273	0.632477	0	
7272	-6.56189	-0.0663757	-0.086761	0.704	85.2273	0.632477	0	
7280	-6.56219	-0.0585938	-0.0108004	0.704	85.2273	0.632477	0	
7288	-6.56189	-0.0509644	0.036997	0.704	85.2273	0.632477	0	
7296	-6.56189	-0.0337219	-0.0564293	0.704	85.2273	0.632477	0	
7304	-6.56219	-0.014801	-0.088091	0.704	85.2273	0.632477	0	
7312	-6.56158	0.00427246	0.0234201	0.704	85.2273	0.632477	0	
7320	-6.56677	0.0189209	0.0713697	0.704	85.2273	0.632477	0	
7328	-6.56677	0.0312805	0.0891997	0.704	85.2273	0.632477	0	
7336	-6.56677	0.0341797	0.109003	0.704	85.2273	0.632477	0	
7344	-6.56708	0.0268555	0.0806389	0.704	85.2273	0.632477	0	
7352	-6.56677	0.00747681	0.0683906	0.704	85.2273	0.632477	0	
7360	-6.56677	-0.0186157	0.0506906	0.704	85.2273	0.632477	0	
7368	-6.57166	-0.0509644	-0.00108299	0.704	85.2273	0.632477	0	
7376	-6.57135	-0.0650024	-0.0212814	0.704	85.2273	0.632477	0	
7384	-6.57166	-0.0822449	-0.00847409	0.704	85.2273	0.632477	0	
7392	-6.57196	-0.083313	0.00375979	0.704	85.2273	0.632477	0	
7400	-6.57501	-0.0906372	0.0344739	0.704	85.2273	0.632477	0	
7408	-6.57654	-0.0765991	0.0138946	0.704	85.2273	0.632477	0	
7416	-6.57684	-0.0708008	0.00684001	0.704	85.2273	0.632477	0	
7424	-6.57715	-0.0730896	0.0101043	0.704	85.2273	0.632477	0	
7432	-6.57684	-0.0531006	0.0133634	0.704	85.2273	0.632477	0	
7440	-6.58173	-0.022583	0.00827755	0.704	85.2273	0.632477	0	
7448	-6.58234	0.00488281	-0.0253982	0.704	85.2273	0.632477	0	
7456	-6.58203	0.00228882	-0.0557375	0.704	85.2273	0.632477	0	
7464	-6.58173	0.00259399	-0.0570033	0.704	85.2273	0.632477	0	
7472	-6.58661	0.00732422	-0.0377615	0.704	85.2273	0.632477	0	
7480	-6.58661	-0.0210571	-0.0403105	0.704	85.2273	0.632477	0	
7488	-6.59119	-0.0335693	-0.0286952	0.704	85.2273	0.632477	0	
7496	-6.5918	-0.0588989	-0.0143876	0.704	85.2273	0.632477	0	
7504	-6.59637	-0.0474548	-0.017182	0.704	85.2273	0.632477	0	
7512	-6.60126	-0.00320435	-0.0186953	0.704	85.2273	0.632477	0	
7520	-6.60217	0.0427246	-0.0122351	0.704	85.2273	0.632477	0	
7528	-6.60614	0.0485229	-0.0061564	0.704	85.2273	0.632477	0	
7536	-6.61133	0.0396729	0.0103033	0.704	85.2273	0.632477	0	
7544	-6.61652	0.0390625	0.0305446	0.704	85.2273	0.632477	0	
7552	-6.62109	0.0550842	0.0276928	0.704	85.2273	0.632477	0	
7560	-6.62598	0.0584412	0.0452498	0.704	85.2273	0.632477	0	
7568	-6.63483	0.0656128	0.068674	0.704	85.2273	0.632477	0	
7576	-6.64063	0.0784302	0.0928665	0.704	85.2273	0.632477	0	
7584	-6.64581	0.0921631	0.0040049	0.704	85.2273	0.632477	0	
7592	-6.65039	0.107727	-0.0221082	0.704	85.2273	0.632477	0	
7600	-6.65344	0.124512	0.00423055	0.704	85.2273	0.632477	0	
7608	-6.65863	0.150757	0.00357406	0.704	85.2273	0.632477	0	
7616	-6.66107	0.163574	-0.027659	0.704	85.2273	0.632477	0	
7624	-6.66504	0.168152	-0.0398158	0.704	85.2273	0.632477	0	
7632	-6.67053	0.166168	-0.0309458	0.704	85.2273	0.632477	0	
7640	-6.67511	0.158386	-0.00769465	0.704	85.2273	0.632477	0	
7648	-6.67999	0.140076	0.00199295	0.704	85.2273	0.632477	0	
7656	-6.68121	0.11795	-0.0353251	0.704	85.2273	0.632477	0	
7664	-6.68488	0.104523	-0.039565	0.704	85.2273	0.632477	0	
7672	-6.69067	0.10025	-0.0252734	0.704	85.2273	0.632477	0	
7680	-6.69006	0.0953674	-0.0223961	0.704	85.2273	0.632477	0	
7688	-6.69037	0.0900269	-0.00978726	0.704	85.2273	0.632477	0	
7696	-6.69586	0.0732422	0.00451111	0.704	85.2273	0.632477	0	
7704	-6.69495	0.0704956	0.0235941	0.704	85.2273	0.632477	0	
7712	-6.69495	0.0663757	0.0390657	0.704	85.2273	0.632477	0	
7720	-6.69556	0.0604248	0.0540219	0.704	85.2273	0.632477	0	
7728	-6.69556	0.0582886	0.0560611	0.704	85.2273	0.632477	0	
7736	-6.69617	0.0556946	0.0487179	0.704	85.2273	0.632477	0	
7744	-6.69464	0.0508118	0.0313138	0.704	85.2273	0.632477	0	
7752	-6.68976	0.063324	0.0107932	0.704	85.2273	0.632477	0	
7760	-6.69067	0.0752258	-0.0213243	0.704	85.2273	0.632477	0	
7768	-6.68488	0.0804138	-0.0248947	0.704	85.2273	0.632477	0	
7776	-6.68518	0.0753784	-0.0458095	0.704	85.2273	0.632477	0	
7784	-6.6806	0.0689697	-0.0418335	0.704	85.2273	0.632477	0	
7792	-6.67511	0.0437927	-0.0529844	0.704	85.2273	0.632477	0	
7800	-6.66992	0.0320435	-0.0231395	0.704	85.2273	0.632477	0	
7808	-6.66626	0.00564575	-0.0148702	0.704	85.2273	0.632477	0	
7816	-6.66077	-0.00518799	-0.0311456	0.704	85.2273	0.632477	0	
7824	-6.65497	-0.00473022	-0.0103926	0.704	85.2273	0.632477	0	
7832	-6.65039	0.0164795	0.0282918	0.704	85.2273	0.632477	0	
7840	-6.64612	0.0216675	0.0621365	0.704	85.2273	0.632477	0	
7848	-6.64063	0.00930786	0.0401517	0.704	85.2273	0.632477	0	
7856	-6.6333	0.0198364	0.0317967	0.704	85.2273	0.632477	0	
7864	-6.62598	0.283203	0.0445144	0.704	85.2273	0.632477	0	
7872	-6.6214	0.666351	0.00324617	0.704	85.2273	0.632477	0	
7880	-6.61194	0.696869	-0.00433505	0.704	85.2273	0.632477	0	
7888	-6.60614	0.431213	-0.0529583	1.064	56.391	0.632477	0	
7896	-6.60095	0.129242	-0.0547244	1.064	56.391	0.696869	0	
7904	-6.59119	-0.209045	-0.0112791	1.064	56.391	0.696869	0	
7912	-6.5863	-0.344086	0.0353794	1.064	56.391	0.696869	0	
7920	-6.57623	-0.274506	0.0188764	1.064	56.391	0.696869	0	
7928	-6.57104	-0.191345	-0.00939873	1.064	56.391	0.696869	0	
7936	-6.56158	-0.170898	-0.0169824	1.064	56.391	0.696869	0	
7944	-6.55701	-0.142517	0.000921448	1.064	56.391	0.696869	0	
7952	-6.54907	-0.129547	-0.0147567	1.064	56.391	0.696869	0	
7960	-6.54205	-0.16098	-0.024009	1.064	56.391	0.696869	0	
7968	-6.53717	-0.162048	-0.0189948	1.064	56.391	0.696869	0	
7976	-6.5274	-0.127411	-0.0118113	1.064	56.391	0.696869	0	
7984	-6.52222	-0.0814819	-0.00484391	1.064	56.391	0.696869	0	
7992	-6.51306	-0.0491333	0.000912501	1.064	56.391	0.696869	0	
8000	-6.50787	-0.0479126	0.026566	1.064	56.391	0.696869	0	
8008	-6.49841	-0.0535583	0.0316198	1.064	56.391	0.696869	0	
8016	-6.49292	-0.0462341	0.0302904	1.064	56.391	0.696869	0	
8024	-6.48804	-0.0280762	0.0282912	1.064	56.391	0.696869	0	
8032	-6.47797	-0.00808716	0.0267454	1.064	56.391	0.696869	0	
8040	-6.47339	0.00488281	0.0112934	1.064	56.391	0.696869	0	
8048	-6.4682	0.0268555	-0.0119173	1.064	56.391	0.696869	0	
8056	-6.46301	0.0474548	-0.0217254	1.064	56.391	0.696869	0	
8064	-6.45416	0.0550842	-0.0149955	1.064	56.391	0.696869	0	
8072	-6.44897	0.0585938	-0.00752228	1.064	56.391	0.696869	0	
8080	-6.44318	0.058136	0.000365064	1.064	56.391	0.696869	0	
8088	-6.4386	0.0328064	-0.0170131	1.064	56.391	0.696869	0	
8096	-6.43372	0.0146484	-0.00897054	1.064	56.391	0.696869	0	
8104	-6.42883	-0.00167847	-0.00197638	1.064	56.391	0.696869	0	
8112	-6.42395	-0.00488281	0.00449785	1.064	56.391	0.696869	0	
8120	-6.41937	-0.012207	0.0150531	1.064	56.391	0.696869	0	
8128	-6.41357	-0.0245667	0.0132249	1.064	56.391	0.696869	0	
8136	-6.409	-0.0291443	-0.00274836	1.064	56.391	0.696869	0	
8144	-6.40472	-0.0268555	0.0166007	1.064	56.391	0.696869	0	
8152	-6.40015	-0.0340271	0.0392494	1.064	56.391	0.696869	0	
8160	-6.39923	-0.0430298	0.0446108	1.064	56.391	0.696869	0	
8168	-6.39465	-0.0552368	0.0194818	1.064	56.391	0.696869	0	
8176	-6.38977	-0.0614929	-0.00602615	1.064	56.391	0.696869	0	
8184	-6.38916	-0.0660706	-0.0459959	1.064	56.391	0.696869	0	
8192	-6.38519	-0.0611877	-0.0380577	1.064	56.391	0.696869	0	
8200	-6.38	-0.0634766	-0.0719199	1.064	56.391	0.696869	0	
8208	-6.3797	-0.0686646	-0.115503	1.064	56.391	0.696869	0	
8216	-6.38	-0.0563049	-0.157256	1.064	56.391	0.696869	0	
8224	-6.37512	-0.0582886	-0.124022	1.064	56.391	0.696869	0	
8232	-6.37451	-0.0485229	-0.0737649	1.064	56.391	0.696869	0	
8240	-6.37451	-0.0361633	-0.0805998	1.064	56.391	0.696869	0	
8248	-6.37482	-0.0250244	-0.167121	1.064	56.391	0.696869	0	
8256	-6.37451	-0.0195313	0.112189	1.064	56.391	0.696869	0	
8264	-6.37421	-0.00946045	0.625375	1.064	56.391	0.696869	0	
8272	-6.37482	-0.00473022	0.622309	1.064	56.391	0.696869	0	
8280	-6.37451	-0.00717163	0.303635	1.064	56.391	0.696869	0	
8288	-6.37939	0.00869751	0.0856526	1.064	56.391	0.696869	0	
8296	-6.38	0.0196838	-0.242613	1.064	56.391	0.696869	0	
8304	-6.38458	0.017395	-0.351514	1.064	56.391	0.696869	0	
8312	-6.38489	0.0132751	-0.229786	1.064	56.391	0.696869	0	
8320	-6.38977	0.00228882	-0.142661	1.064	56.391	0.696869	0	
8328	-6.38885	-0.0239563	-0.139712	1.064	56.391	0.696869	0	
8336	-6.39465	-0.0959778	-0.0616112	1.064	56.391	0.696869	0	
8344	-6.39923	-0.106812	0.00226426	1.064	56.391	0.696869	0	
8352	-6.39954	-0.098877	-0.045904	1.064	56.391	0.696869	0	
8360	-6.40411	-0.0741577	-0.0623961	1.064	56.391	0.696869	0	
8368	-6.409	-0.0511169	-0.0221819	1.064	56.391	0.696869	0	
8376	-6.41418	-0.032196	0.0374628	1.064	56.391	0.696869	0	
8384	-6.41907	-0.0221252	0.0710129	1.064	56.391	0.696869	0	
8392	-6.42365	-0.0170898	0.0466585	1.064	56.391	0.696869	0	
8400	-6.42792	-0.0190735	0.0152692	1.064	56.391	0.696869	0	
8408	-6.42853	-0.0146484	0.01245	1.064	56.391	0.696869	0	
8416	-6.43372	-0.0102234	0.024853	1.064	56.391	0.696869	0	
8424	-6.4389	-0.00518799	0.0299376	1.064	56.391	0.696869	0	
8432	-6.44379	-0.0126648	0.0154257	1.064	56.391	0.696869	0	
8440	-6.44836	-0.0166321	0.0229705	1.064	56.391	0.696869	0	
8448	-6.44897	-0.0166321	0.0369338	1.064	56.391	0.696869	0	
8456	-6.45355	-0.0218201	0.0339643	1.064	56.391	0.696869	0	
8464	-6.45844	-0.0245667	0.0320316	1.064	56.391	0.696869	0	
8472	-6.45844	-0.0219727	0.0342624	1.064	56.391	0.696869	0	
8480	-6.46332	-0.0149536	-0.000529532	1.064	56.391	0.696869	0	
8488	-6.46759	-0.0106812	-0.0138359	1.064	56.391	0.696869	0	
8496	-6.4679	-0.0123596	-0.0245288	1.064	56.391	0.696869	0	
8504	-6.47217	-0.00473022	-0.0139074	1.064	56.391	0.696869	0	
8512	-6.47369	-0.00961304	-0.0143338	1.064	56.391	0.696869	0	
8520	-6.47369	-0.0268555	-0.0244092	1.064	56.391	0.696869	0	
8528	-6.47766	-0.0411987	-0.0183868	1.064	56.391	0.696869	0	
8536	-6.47797	-0.0556946	0.000372275	1.064	56.391	0.696869	0	
8544	-6.47766	-0.0566101	-0.000370735	1.064	56.391	0.696869	0	
8552	-6.47827	-0.039978	-0.00338466	1.064	56.391	0.696869	0	
8560	-6.47797	-0.0221252	-0.0117335	1.064	56.391	0.696869	0	
8568	-6.47827	-0.00564575	-0.0110746	1.064	56.391	0.696869	0	
8576	-6.47797	0.0187683	-0.013757	1.064	56.391	0.696869	0	
8584	-6.47339	0.0384521	-0.00367565	1.064	56.391	0.696869	0	
8592	-6.47278	0.0512695	-0.0101776	1.064	56.391	0.696869	0	
8600	-6.4679	0.0253296	-0.0224226	1.064	56.391	0.696869	0	
8608	-6.46332	-0.0108337	-0.00141155	1.064	56.391	0.696869	0	
8616	-6.45844	0.114594	-0.0140609	1.064	56.391	0.696869	0	
8624	-6.45355	0.456696	-0.00830601	1.064	56.391	0.696869	0	
8632	-6.44348	0.716858	0.000854142	1.064	56.391	0.696869	0	
8640	-6.43433	0.554962	0.0090619	1.064	56.391	0.696869	0	
8648	-6.42426	0.309296	0.00832983	0.752	79.7872	0.716858	0	
8656	-6.41418	-0.0444031	0.0186011	0.752	79.7872	0.716858	0	
8664	-6.40381	-0.253906	0.0200569	0.752	79.7872	0.716858	0	
8672	-6.38885	-0.264587	0.00887531	0.752	79.7872	0.716858	0	
8680	-6.37482	-0.172424	0.0340917	0.752	79.7872	0.716858	0	
8688	-6.36139	-0.101929	0.0475141	0.752	79.7872	0.716858	0	
8696	-6.34949	-0.0680542	0.0354659	0.752	79.7872	0.716858	0	
8704	-6.33148	-0.0590515	0.0302216	0.752	79.7872	0.716858	0	
8712	-6.31714	-0.0512695	0.030721	0.752	79.7872	0.716858	0	
8720	-6.30127	-0.0561523	0.0186322	0.752	79.7872	0.716858	0	
8728	-6.28632	-0.0611877	-0.0822375	0.752	79.7872	0.716858	0	
8736	-6.2674	-0.065918	-0.0778533	0.752	79.7872	0.716858	0	
8744	-6.25183	-0.0537109	-0.0635047	0.752	79.7872	0.716858	0	
8752	-6.23718	-0.0366211	-0.0376084	0.752	79.7872	0.716858	0	
8760	-6.21918	-0.0195313	-0.021158	0.752	79.7872	0.716858	0	
8768	-6.20239	-0.00228882	-0.00470136	0.752	79.7872	0.716858	0	
8776	-6.18713	0.0213623	0.0067589	0.752	79.7872	0.716858	0	
8784	-6.16913	0.0415039	0.0156953	0.752	79.7872	0.716858	0	
8792	-6.15326	0.0605774	0.00996699	0.752	79.7872	0.716858	0	
8800	-6.1377	0.0799561	0.0124993	0.752	79.7872	0.716858	0	
8808	-6.12274	0.0930786	0.0136789	0.752	79.7872	0.716858	0	
8816	-6.10535	0.100098	0.0213678	0.752	79.7872	0.716858	0	
8824	-6.08917	0.0973511	0.0121332	0.752	79.7872	0.716858	0	
8832	-6.07605	0.0923157	0.013327	0.752	79.7872	0.716858	0	
8840	-6.06079	0.0871277	0.0185179	0.752	79.7872	0.716858	0	
8848	-6.04614	0.0775146	0.00794632	0.752	79.7872	0.716858	0	
8856	-6.03119	0.0717163	0.00274592	0.752	79.7872	0.716858	0	
8864	-6.01746	0.0614929	0.013019	0.752	79.7872	0.716858	0	
8872	-6.00525	0.045929	0.0316201	0.752	79.7872	0.716858	0	
8880	-5.9906	0.0291443	0.0348034	0.752	79.7872	0.716858	0	
8888	-5.97565	0.0195313	0.0169953	0.752	79.7872	0.716858	0	
8896	-5.96161	0.0288391	0.0231642	0.752	79.7872	0.716858	0	
8904	-5.94757	0.0292969	0.0215714	0.752	79.7872	0.716858	0	
8912	-5.93597	0.0119019	0.00461393	0.752	79.7872	0.716858	0	
8920	-5.92133	-0.0062561	-0.0184638	0.752	79.7872	0.716858	0	
8928	-5.91095	-0.0343323	-0.0628849	0.752	79.7872	0.716858	0	
8936	-5.89691	-0.0570679	-0.0871251	0.752	79.7872	0.716858	0	
8944	-5.88593	-0.0904846	-0.0679052	0.752	79.7872	0.716858	0	
8952	-5.87219	-0.107574	-0.0482848	0.752	79.7872	0.716858	0	
8960	-5.86212	-0.11795	-0.0591809	0.752	79.7872	0.716858	0	
8968	-5.85114	-0.114594	-0.0797364	0.752	79.7872	0.716858	0	
8976	-5.83893	-0.103607	-0.0879482	0.752	79.7872	0.716858	0	
8984	-5.82825	-0.091095	-0.0452628	0.752	79.7872	0.716858	0	
8992	-5.81726	-0.0694275	-0.0481619	0.752	79.7872	0.716858	0	
9000	-5.80811	-0.0390625	-0.146265	0.752	79.7872	0.716858	0	
9008	-5.79895	-0.0154114	-0.0746426	0.752	79.7872	0.716858	0	
9016	-5.7901	0.00274658	0.334607	0.752	79.7872	0.716858	0	
9024	-5.78339	0.0218201	0.666381	0.752	79.7872	0.716858	0	
9032	-5.77393	0.0369263	0.401412	0.752	79.7872	0.716858	0	
9040	-5.76447	0.0326538	0.209947	0.752	79.7872	0.716858	0	
9048	-5.75836	0.015564	-0.130416	0.752	79.7872	0.716858	0	
9056	-5.7486	0.014801	-0.311315	0.752	79.7872	0.716858	0	
9064	-5.74402	0.0219727	-0.291366	0.752	79.7872	0.716858	0	
9072	-5.73547	0.0260925	-0.183037	0.752	79.7872	0.716858	0	
9080	-5.72968	0.0270081	-0.113995	0.752	79.7872	0.716858	0	
9088	-5.72418	0.0196838	-0.0589972	0.752	79.7872	0.716858	0	
9096	-5.7196	0.0169373	-0.0191854	0.752	79.7872	0.716858	0	
9104	-5.71045	0.0146484	0.0104884	0.752	79.7872	0.716858	0	
9112	-5.70465	0.0167847	-0.00163268	0.752	79.7872	0.716858	0	
9120	-5.69946	0.00488281	-0.0135828	0.752	79.7872	0.716858	0	
9128	-5.69489	0.00747681	-0.0175698	0.752	79.7872	0.716858	0	
9136	-5.69	0.0119019	0.00516921	0.752	79.7872	0.716858	0	
9144	-5.68481	0.0268555	0.0159997	0.752	79.7872	0.716858	0	
9152	-5.67963	0.0183105	0.0100156	0.752	79.7872	0.716858	0	
9160	-5.67535	-0.000152588	0.00442981	0.752	79.7872	0.716858	0	
9168	-5.67017	-0.0308228	0.0200436	0.752	79.7872	0.716858	0	
9176	-5.66467	-0.0915527	0.0304389	0.752	79.7872	0.716858	0	
9184	-5.6604	-0.158386	0.0322893	0.752	79.7872	0.716858	0	
9192	-5.65521	-0.216675	0.0316828	0.752	79.7872	0.716858	0	
9200	-5.65033	-0.256805	0.0273983	0.752	79.7872	0.716858	0	
9208	-5.64575	-0.290375	0.02707	0.752	79.7872	0.716858	0	
9216	-5.63995	-0.305481	0.0196714	0.752	79.7872	0.716858	0	
9224	-5.6311	-0.288849	0.0115998	0.752	79.7872	0.716858	0	
9232	-5.62561	-0.257416	0.00337572	0.752	79.7872	0.716858	0	
9240	-5.62103	-0.212555	-0.0101343	0.752	79.7872	0.716858	0	
9248	-5.61157	-0.182953	-0.00742429	0.752	79.7872	0.716858	0	
9256	-5.60638	-0.151978	-0.00445426	0.752	79.7872	0.716858	0	
9264	-5.59631	-0.125427	-0.00807031	0.752	79.7872	0.716858	0	
9272	-5.58685	-0.105286	-0.0167439	0.752	79.7872	0.716858	0	
9280	-5.57861	0.0799561	-0.0172099	0.752	79.7872	0.716858	0	
9288	-5.57098	0.476379	0.0161069	0.752	79.7872	0.716858	0	
9296	-5.56183	0.827332	0.0338345	0.752	79.7872	0.716858	0	
9304	-5.55145	0.691376	0.0237955	0.752	79.7872	0.716858	0	
9312	-5.53864	0.476074	0.0216616	0.664	90.3614	0.716858	0	
9320	-5.52826	0.136871	0.00557159	0.664	90.3614	0.827332	0	
9328	-5.51819	-0.0717163	7.34783E-05	0.664	90.3614	0.827332	0	
9336	-5.50781	-0.0601196	-0.0321877	0.664	90.3614	0.827332	0	
9344	-5.49774	-0.0180054	-0.0409912	0.664	90.3614	0.827332	0	
9352	-5.48828	0.000457764	-0.0482723	0.664	90.3614	0.827332	0	
9360	-5.47485	-0.0141907	-0.0414269	0.664	90.3614	0.827332	0	
9368	-5.46478	-0.0195313	-0.0317598	0.664	90.3614	0.827332	0	
9376	-5.45502	-0.0247192	-0.0284363	0.664	90.3614	0.827332	0	
9384	-5.44556	-0.0178528	-0.0130983	0.664	90.3614	0.827332	0	
9392	-5.43793	0.00427246	0.014912	0.664	90.3614	0.827332	0	
9400	-5.42847	0.00305176	0.0259816	0.664	90.3614	0.827332	0	
9408	-5.41901	-0.0645447	0.0259273	0.664	90.3614	0.827332	0	
9416	-5.41016	-0.112305	0.033343	0.664	90.3614	0.827332	0	
9424	-5.40405	-0.144958	0.0432448	0.664	90.3614	0.827332	0	
9432	-5.39398	-0.216217	0.0247492	0.664	90.3614	0.827332	0	
9440	-5.38971	-0.209656	-0.0141095	0.664	90.3614	0.827332	0	
9448	-5.37994	-0.184021	-0.021229	0.664	90.3614	0.827332	0	
9456	-5.37415	-0.156708	-0.0160861	0.664	90.3614	0.827332	0	
9464	-5.36835	-0.112915	-0.01811	0.664	90.3614	0.827332	0	
9472	-5.36041	-0.0398254	-0.0218813	0.664	90.3614	0.827332	0	
9480	-5.35522	0.0141907	-0.0328976	0.664	90.3614	0.827332	0	
9488	-5.34973	0.0601196	-0.0257314	0.664	90.3614	0.827332	0	
9496	-5.34515	0.109253	-0.0133626	0.664	90.3614	0.827332	0	
9504	-5.34027	0.13916	0.00733717	0.664	90.3614	0.827332	0	
9512	-5.33569	0.155334	-0.000850482	0.664	90.3614	0.827332	0	
9520	-5.3299	0.157013	0.022466	0.664	90.3614	0.827332	0	
9528	-5.32593	0.117493	0.05334	0.664	90.3614	0.827332	0	
9536	-5.32135	0.0785828	0.10626	0.664	90.3614	0.827332	0	
9544	-5.31525	0.0367737	0.112429	0.664	90.3614	0.827332	0	
9552	-5.31097	-0.0115967	0.108035	0.664	90.3614	0.827332	0	
9560	-5.30579	-0.0508118	0.102616	0.664	90.3614	0.827332	0	
9568	-5.30121	-0.065918	0.0625284	0.664	90.3614	0.827332	0	
9576	-5.2951	-0.0595093	0.0157764	0.664	90.3614	0.827332	0	
9584	-5.29114	-0.0485229	-0.0359433	0.664	90.3614	0.827332	0	
9592	-5.28595	-0.0300598	-0.0827882	0.664	90.3614	0.827332	0	
9600	-5.28137	-0.0187683	-0.133997	0.664	90.3614	0.827332	0	
9608	-5.2771	-0.00289917	-0.154555	0.664	90.3614	0.827332	0	
9616	-5.2713	0.00473022	-0.133613	0.664	90.3614	0.827332	0	
9624	-5.26672	0.00823975	-0.131165	0.664	90.3614	0.827332	0	
9632	-5.26154	0.000152588	-0.141946	0.664	90.3614	0.827332	0	
9640	-5.25696	0.00289917	-0.169847	0.664	90.3614	0.827332	0	
9648	-5.25726	0.00686646	-0.138977	0.664	90.3614	0.827332	0	
9656	-5.25238	-0.0164795	-0.100053	0.664	90.3614	0.827332	0	
9664	-5.24658	-0.0241089	-0.168748	0.664	90.3614	0.827332	0	
9672	-5.2417	-0.0311279	-0.0766077	0.664	90.3614	0.827332	0	
9680	-5.2417	-0.0773621	0.33986	0.664	90.3614	0.827332	0	
9688	-5.23682	-0.0993347	0.764607	0.664	90.3614	0.827332	0	
9696	-5.23682	-0.112305	0.483479	0.664	90.3614	0.827332	0	
9704	-5.23651	-0.0979614	0.303254	0.664	90.3614	0.827332	0	
9712	-5.23163	-0.0878906	-0.0441719	0.664	90.3614	0.827332	0	
9720	-5.23193	-0.0727844	-0.245432	0.664	90.3614	0.827332	0	
9728	-5.23193	-0.0541687	-0.181328	0.664	90.3614	0.827332	0	
9736	-5.23163	-0.0314331	-0.143981	0.664	90.3614	0.827332	0	
9744	-5.23193	-0.00335693	-0.124157	0.664	90.3614	0.827332	0	
9752	-5.23163	0.00762939	-0.104007	0.664	90.3614	0.827332	0	
9760	-5.23804	0.0198364	-0.04651	0.664	90.3614	0.827332	0	
9768	-5.23682	0.0392151	-0.0237418	0.664	90.3614	0.827332	0	
9776	-5.2417	0.0488281	-0.0111739	0.664	90.3614	0.827332	0	
9784	-5.24689	0.0563049	0.0391308	0.664	90.3614	0.827332	0	
9792	-5.25146	0.0341797	0.0795195	0.664	90.3614	0.827332	0	
9800	-5.25635	0.0292969	0.0153736	0.664	90.3614	0.827332	0	
9808	-5.26215	0.0285339	-0.00877665	0.664	90.3614	0.827332	0	
9816	-5.27191	0.0270081	-0.0205325	0.664	90.3614	0.827332	0	
9824	-5.28076	0.0415039	-0.130451	0.664	90.3614	0.827332	0	
9832	-5.29266	0.0552368	-0.107292	0.664	90.3614	0.827332	0	
9840	-5.30518	0.0723267	-0.0748371	0.664	90.3614	0.827332	0	
9848	-5.31647	0.102234	-0.0704363	0.664	90.3614	0.827332	0	
9856	-5.33081	0.0852966	-0.055075	0.664	90.3614	0.827332	0	
9864	-5.34454	0.0706482	0.0129735	0.664	90.3614	0.827332	0	
9872	-5.36072	0.0442505	0.0476222	0.664	90.3614	0.827332	0	
9880	-5.37872	0.0106812	0.0722251	0.664	90.3614	0.827332	0	
9888	-5.39398	-0.0161743	0.109065	0.664	90.3614	0.827332	0	
9896	-5.41351	-0.0357056	0.11881	0.664	90.3614	0.827332	0	
9904	-5.42847	-0.0492859	0.121867	0.664	90.3614	0.827332	0	
9912	-5.4483	-0.068512	0.122369	0.664	90.3614	0.827332	0	
9920	-5.46448	-0.0926208	0.0648708	0.664	90.3614	0.827332	0	
9928	-5.48309	-0.112915	0.0257883	0.664	90.3614	0.827332	0	
9936	-5.50232	-0.128632	-0.0102521	0.664	90.3614	0.827332	0	
9944	-5.52094	-0.174866	-0.0591863	0.664	90.3614	0.827332	0	
9952	-5.53802	-0.232086	-0.0985719	0.664	90.3614	0.827332	0	
9960	-5.55634	-0.0944519	-0.105384	0.664	90.3614	0.827332	0	
9968	-5.57648	0.268707	-0.0857629	0.664	90.3614	0.827332	0	
9976	-5.59479	0.604401	-0.0680976	0.664	90.3614	0.827332	0	
9984	-5.61218	0.464325	-0.0388367	0.664	90.3614	0.604401	0	
9992	-5.6308	0.305328	-0.0218919	0.68	88.2353	0.604401	0	
10000	-5.64941	-0.0108337	0.0080938	0.68	88.2353	0.604401	0	
10008	-5.66528	-0.228577	0.0257847	0.68	88.2353	0.604401	0	
10016	-5.68329	-0.205841	0.0393286	0.68	88.2353	0.604401	0	
10024	-5.69885	-0.14267	0.0325458	0.68	88.2353	0.604401	0	
10032	-5.71777	-0.0765991	0.0478666	0.68	88.2353	0.604401	0	
10040	-5.73425	-0.0325012	0.0649158	0.68	88.2353	0.604401	0	
10048	-5.74921	-0.0169373	0.0291148	0.68	88.2353	0.604401	0	
10056	-5.76721	-0.0117493	0.0310599	0.68	88.2353	0.604401	0	
10064	-5.78369	0.000152588	0.0422441	0.68	88.2353	0.604401	0	
10072	-5.79803	0.000152588	-0.0215751	0.68	88.2353	0.604401	0	
10080	-5.81329	0.0120544	-0.042526	0.68	88.2353	0.604401	0	
10088	-5.82886	0.0338745	-0.0590863	0.68	88.2353	0.604401	0	
10096	-5.84259	0.0508118	-0.0373441	0.68	88.2353	0.604401	0	
10104	-5.85724	0.0512695	-0.0375449	0.68	88.2353	0.604401	0	
10112	-5.87219	0.0434875	-0.0349996	0.68	88.2353	0.604401	0	
10120	-5.88593	0.0421143	-0.0268629	0.68	88.2353	0.604401	0	
10128	-5.89722	0.0392151	-0.00908042	0.68	88.2353	0.604401	0	
10136	-5.91125	0.045929	0.0197146	0.68	88.2353	0.604401	0	
10144	-5.92255	0.0532532	0.0123705	0.68	88.2353	0.604401	0	
10152	-5.93597	0.0636292	0.00655764	0.68	88.2353	0.604401	0	
10160	-5.94788	0.0636292	0.0199449	0.68	88.2353	0.604401	0	
10168	-5.961	0.0431824	0.0244331	0.68	88.2353	0.604401	0	
10176	-5.97046	0.00762939	0.035071	0.68	88.2353	0.604401	0	
10184	-5.98145	-0.0314331	-0.00873973	0.68	88.2353	0.604401	0	
10192	-5.99365	-0.0654602	-0.0178018	0.68	88.2353	0.604401	0	
10200	-6.00494	-0.0947571	-0.0180105	0.68	88.2353	0.604401	0	
10208	-6.01471	-0.129395	-0.0191691	0.68	88.2353	0.604401	0	
10216	-6.02417	-0.165253	0.00605536	0.68	88.2353	0.604401	0	
10224	-6.03363	-0.196838	0.0170706	0.68	88.2353	0.604401	0	
10232	-6.04004	-0.20752	0.0272209	0.68	88.2353	0.604401	0	
10240	-6.0495	-0.215759	0.0746101	0.68	88.2353	0.604401	0	
10248	-6.05957	-0.22522	0.0556459	0.68	88.2353	0.604401	0	
10256	-6.06506	-0.220032	0.0622934	0.68	88.2353	0.604401	0	
10264	-6.07361	-0.219879	0.0443475	0.68	88.2353	0.604401	0	
10272	-6.0791	-0.200958	-0.000466829	0.68	88.2353	0.604401	0	
10280	-6.08429	-0.164032	-0.0323029	0.68	88.2353	0.604401	0	
10288	-6.09009	-0.122375	-0.0354706	0.68	88.2353	0.604401	0	
10296	-6.09772	-0.0761414	-0.0238316	0.68	88.2353	0.604401	0	
10304	-6.1026	-0.032196	-0.0483283	0.68	88.2353	0.604401	0	
10312	-6.10352	0.00930786	-0.108904	0.68	88.2353	0.604401	0	
10320	-6.10809	0.0363159	-0.145161	0.68	88.2353	0.604401	0	
10328	-6.1142	0.0508118	-0.116531	0.68	88.2353	0.604401	0	
10336	-6.11328	0.06073	-0.129381	0.68	88.2353	0.604401	0	
10344	-6.11877	0.0726318	-0.255698	0.68	88.2353	0.604401	0	
10352	-6.11847	0.08255	-0.167922	0.68	88.2353	0.604401	0	
10360	-6.11816	0.0856018	0.249095	0.68	88.2353	0.604401	0	
10368	-6.11938	0.0874329	0.673138	0.68	88.2353	0.604401	0	
10376	-6.11847	0.0895691	0.378462	0.68	88.2353	0.604401	0	
10384	-6.11847	0.0952148	0.28801	0.68	88.2353	0.604401	0	
10392	-6.11328	0.0898743	-0.0339684	0.68	88.2353	0.604401	0	
10400	-6.11359	0.0849915	-0.266354	0.68	88.2353	0.604401	0	
10408	-6.10901	0.0775146	-0.197697	0.68	88.2353	0.604401	0	
10416	-6.10321	0.0567627	-0.159269	0.68	88.2353	0.604401	0	
10424	-6.09863	0.0352478	-0.1136	0.68	88.2353	0.604401	0	
10432	-6.09406	0.0117493	-0.0572283	0.68	88.2353	0.604401	0	
10440	-6.08887	-0.0288391	-0.0247317	0.68	88.2353	0.604401	0	
10448	-6.07849	-0.0437927	-0.0189995	0.68	88.2353	0.604401	0	
10456	-6.07452	-0.0390625	-0.0147657	0.68	88.2353	0.604401	0	
10464	-6.06415	-0.0413513	-0.0336507	0.68	88.2353	0.604401	0	
10472	-6.0556	-0.0439453	-0.0196746	0.68	88.2353	0.604401	0	
10480	-6.0498	-0.0415039	0.014438	0.68	88.2353	0.604401	0	
10488	-6.03973	-0.0334167	0.0313368	0.68	88.2353	0.604401	0	
10496	-6.02966	-0.0262451	0.0156557	0.68	88.2353	0.604401	0	
10504	-6.01959	-0.0265503	-0.00248646	0.68	88.2353	0.604401	0	
10512	-6.01013	-0.0250244	0.00668613	0.68	88.2353	0.604401	0	
10520	-5.99976	0.00686646	0.0125926	0.68	88.2353	0.604401	0	
10528	-5.9903	0.0456238	0.0248026	0.68	88.2353	0.604401	0	
10536	-5.98022	0.08255	0.0295274	0.68	88.2353	0.604401	0	
10544	-5.97046	0.107727	0.0486133	0.68	88.2353	0.604401	0	
10552	-5.96008	0.1297	0.068451	0.68	88.2353	0.604401	0	
10560	-5.94727	0.124054	0.0682686	0.68	88.2353	0.604401	0	
10568	-5.93781	0.0933838	0.0486757	0.68	88.2353	0.604401	0	
10576	-5.92682	0.0683594	0.0241684	0.68	88.2353	0.604401	0	
10584	-5.91614	0.0369263	0.0097228	0.68	88.2353	0.604401	0	
10592	-5.90729	0.0405884	0.00598085	0.68	88.2353	0.604401	0	
10600	-5.89722	0.0611877	-0.00813432	0.68	88.2353	0.604401	0	
10608	-5.88654	0.087738	-0.0291689	0.68	88.2353	0.604401	0	
10616	-5.87677	0.0944519	-0.0518581	0.68	88.2353	0.604401	0	
10624	-5.867	0.114746	-0.0457862	0.68	88.2353	0.604401	0	
10632	-5.85693	0.155182	-0.0467201	0.68	88.2353	0.604401	0	
10640	-5.84747	0.177765	-0.0592432	0.68	88.2353	0.604401	0	
10648	-5.8371	0.187531	-0.0509867	0.68	88.2353	0.604401	0	
10656	-5.82794	0.19104	-0.064421	0.68	88.2353	0.604401	0	
10664	-5.81879	0.146637	-0.0567052	0.68	88.2353	0.604401	0	
10672	-5.81329	0.0398254	-0.0314232	0.68	88.2353	0.604401	0	
10680	-5.80322	-0.0180054	-0.0116441	0.68	88.2353	0.604401	0	
10688	-5.79285	0.190887	0.0103073	0.68	88.2353	0.604401	0	
10696	-5.78827	0.579376	0.0293891	0.68	88.2353	0.604401	0	
10704	-5.7785	0.614929	0.0512962	0.68	88.2353	0.604401	0	
10712	-5.77393	0.404663	0.0543839	0.728	82.4176	0.604401	0	
10720	-5.76447	0.118408	0.0424808	0.728	82.4176	0.614929	0	
10728	-5.75897	-0.225525	0.0298688	0.728	82.4176	0.614929	0	
10736	-5.75409	-0.325928	0.0275401	0.728	82.4176	0.614929	0	
10744	-5.74402	-0.246735	0.0258948	0.728	82.4176	0.614929	0	
10752	-5.73883	-0.15274	0.0149695	0.728	82.4176	0.614929	0	
10760	-5.73456	-0.0836182	0.00727918	0.728	82.4176	0.614929	0	
10768	-5.72876	0.000457764	0.00695475	0.728	82.4176	0.614929	0	
10776	-5.72479	-0.00534058	0.0197457	0.728	82.4176	0.614929	0	
10784	-5.72021	-0.0341797	0.0149146	0.728	82.4176	0.614929	0	
10792	-5.7196	-0.0660706	0.0152406	0.728	82.4176	0.614929	0	
10800	-5.71411	-0.0689697	0.0176017	0.728	82.4176	0.614929	0	
10808	-5.71472	-0.0605774	0.00419039	0.728	82.4176	0.614929	0	
10816	-5.70953	-0.0642395	-0.000623902	0.728	82.4176	0.614929	0	
10824	-5.70953	-0.0318909	-0.00595922	0.728	82.4176	0.614929	0	
10832	-5.70984	-0.012207	-0.0508876	0.728	82.4176	0.614929	0	
10840	-5.70923	-0.0154114	-0.0551634	0.728	82.4176	0.614929	0	
10848	-5.71014	-0.0115967	-0.0303147	0.728	82.4176	0.614929	0	
10856	-5.70984	-0.00152588	-0.0271394	0.728	82.4176	0.614929	0	
10864	-5.70953	0.0177002	-0.0307254	0.728	82.4176	0.614929	0	
10872	-5.71014	0.0384521	-0.0291222	0.728	82.4176	0.614929	0	
10880	-5.71442	0.0514221	-0.0178442	0.728	82.4176	0.614929	0	
10888	-5.71472	0.052948	-0.00692787	0.728	82.4176	0.614929	0	
10896	-5.7193	0.0582886	-0.0121698	0.728	82.4176	0.614929	0	
10904	-5.71991	0.058136	-0.0241635	0.728	82.4176	0.614929	0	
10912	-5.72418	0.0543213	0.00661479	0.728	82.4176	0.614929	0	
10920	-5.72876	0.0296021	0.036568	0.728	82.4176	0.614929	0	
10928	-5.73273	-0.000305176	0.0614498	0.728	82.4176	0.614929	0	
10936	-5.73395	-0.0308228	0.0735362	0.728	82.4176	0.614929	0	
10944	-5.73914	-0.0657654	0.0937254	0.728	82.4176	0.614929	0	
10952	-5.74463	-0.098114	0.0727609	0.728	82.4176	0.614929	0	
10960	-5.74921	-0.125275	0.0170682	0.728	82.4176	0.614929	0	
10968	-5.75317	-0.136871	-0.0139351	0.728	82.4176	0.614929	0	
10976	-5.76202	-0.144348	-0.0592398	0.728	82.4176	0.614929	0	
10984	-5.76874	-0.142212	-0.0588037	0.728	82.4176	0.614929	0	
10992	-5.77362	-0.116577	-0.0568155	0.728	82.4176	0.614929	0	
11000	-5.7782	-0.0933838	-0.0538293	0.728	82.4176	0.614929	0	
11008	-5.78339	-0.0813293	-0.0711124	0.728	82.4176	0.614929	0	
11016	-5.79315	-0.0604248	-0.0405829	0.728	82.4176	0.614929	0	
11024	-5.79834	-0.0386047	0.0176786	0.728	82.4176	0.614929	0	
11032	-5.80414	-0.0245667	0.00583361	0.728	82.4176	0.614929	0	
11040	-5.8136	-0.0169373	-0.0304076	0.728	82.4176	0.614929	0	
11048	-5.81757	-0.0143433	-0.00753715	0.728	82.4176	0.614929	0	
11056	-5.82825	-0.0120544	0.00968075	0.728	82.4176	0.614929	0	
11064	-5.83435	-0.00442505	-0.0958735	0.728	82.4176	0.614929	0	
11072	-5.84229	-0.0198364	-0.235115	0.728	82.4176	0.614929	0	
11080	-5.85205	-0.0390625	-0.0137014	0.728	82.4176	0.614929	0	
11088	-5.85754	-0.0608826	0.519313	0.728	82.4176	0.614929	0	
11096	-5.86731	-0.0782776	0.505024	0.728	82.4176	0.614929	0	
11104	-5.87646	-0.112152	0.266713	0.728	82.4176	0.614929	0	
11112	-5.88593	-0.136414	0.0570545	0.728	82.4176	0.614929	0	
11120	-5.89264	-0.146332	-0.295552	0.728	82.4176	0.614929	0	
11128	-5.90149	-0.146332	-0.346569	0.728	82.4176	0.614929	0	
11136	-5.91156	-0.136261	-0.225496	0.728	82.4176	0.614929	0	
11144	-5.92072	-0.120392	-0.149186	0.728	82.4176	0.614929	0	
11152	-5.92621	-0.12619	-0.089628	0.728	82.4176	0.614929	0	
11160	-5.93628	-0.137329	0.0617877	0.728	82.4176	0.614929	0	
11168	-5.94574	-0.127258	0.0663939	0.728	82.4176	0.614929	0	
11176	-5.95032	-0.0958252	0.028438	0.728	82.4176	0.614929	0	
11184	-5.961	-0.090332	-0.0179118	0.728	82.4176	0.614929	0	
11192	-5.96558	-0.0856018	-0.00845841	0.728	82.4176	0.614929	0	
11200	-5.97473	-0.0735474	0.0110869	0.728	82.4176	0.614929	0	
11208	-5.98022	-0.0440979	-0.0162279	0.728	82.4176	0.614929	0	
11216	-5.98572	-0.0167847	0.0129352	0.728	82.4176	0.614929	0	
11224	-5.98999	0.012207	0.0215783	0.728	82.4176	0.614929	0	
11232	-5.98969	0.0318909	0.000377552	0.728	82.4176	0.614929	0	
11240	-5.99487	0.0315857	-3.36566E-05	0.728	82.4176	0.614929	0	
11248	-6.00037	0.0294495	0.00296556	0.728	82.4176	0.614929	0	
11256	-5.99945	0.00930786	0.012449	0.728	82.4176	0.614929	0	
11264	-6.00494	-0.00808716	0.0255451	0.728	82.4176	0.614929	0	
11272	-6.00494	-0.0239563	0.0356729	0.728	82.4176	0.614929	0	
11280	-6.00525	-0.0285339	0.0353274	0.728	82.4176	0.614929	0	
11288	-6.00494	0.0126648	0.0475052	0.728	82.4176	0.614929	0	
11296	-6.00494	0.0628662	0.0511819	0.728	82.4176	0.614929	0	
11304	-6.00525	0.0830078	0.056106	0.728	82.4176	0.614929	0	
11312	-6.00067	0.102081	0.0341226	0.728	82.4176	0.614929	0	
11320	-5.99518	0.111542	0.0150698	0.728	82.4176	0.614929	0	
11328	-5.9906	0.114136	4.74604E-05	0.728	82.4176	0.614929	0	
11336	-5.98053	0.0927734	-0.0257843	0.728	82.4176	0.614929	0	
11344	-5.97076	0.0827026	-0.051164	0.728	82.4176	0.614929	0	
11352	-5.961	0.0386047	-0.0721058	0.728	82.4176	0.614929	0	
11360	-5.95123	0.0154114	-0.0710826	0.728	82.4176	0.614929	0	
11368	-5.93567	0.193176	-0.0752541	0.728	82.4176	0.614929	0	
11376	-5.92163	0.561523	-0.0750899	0.728	82.4176	0.614929	0	
11384	-5.90698	0.698242	-0.0396599	0.728	82.4176	0.614929	0	
11392	-5.88776	0.506897	-0.0150279	0.728	82.4176	0.614929	0	
11400	-5.87219	0.242157	-0.013432	0.68	88.2353	0.698242	0	
11408	-5.85266	-0.107117	0.00784028	0.68	88.2353	0.698242	0	
11416	-5.83374	-0.263672	0.0335603	0.68	88.2353	0.698242	0	
11424	-5.81329	-0.229645	0.0461231	0.68	88.2353	0.698242	0	
11432	-5.79132	-0.150146	0.0486227	0.68	88.2353	0.698242	0	
11440	-5.76904	-0.0640869	0.0454734	0.68	88.2353	0.698242	0	
11448	-5.74768	-0.0439453	0.0482906	0.68	88.2353	0.698242	0	
11456	-5.72449	-0.052948	0.0691437	0.68	88.2353	0.698242	0	
11464	-5.70038	-0.0706482	0.0501866	0.68	88.2353	0.698242	0	
11472	-5.67871	-0.0753784	0.0289843	0.68	88.2353	0.698242	0	
11480	-5.65552	-0.0831604	0.00930564	0.68	88.2353	0.698242	0	
11488	-5.63171	-0.0831604	0.00652522	0.68	88.2353	0.698242	0	
11496	-5.6076	-0.0761414	-0.0250444	0.68	88.2353	0.698242	0	
11504	-5.58502	-0.0585938	-0.0436323	0.68	88.2353	0.698242	0	
11512	-5.56183	-0.0244141	-0.0494774	0.68	88.2353	0.698242	0	
11520	-5.53711	0.0170898	-0.0510129	0.68	88.2353	0.698242	0	
11528	-5.51422	0.0605774	-0.037184	0.68	88.2353	0.698242	0	
11536	-5.49164	0.0975037	-0.00650275	0.68	88.2353	0.698242	0	
11544	-5.46844	0.124969	-0.0150292	0.68	88.2353	0.698242	0	
11552	-5.44342	0.13855	-0.0397218	0.68	88.2353	0.698242	0	
11560	-5.42053	0.136261	-0.0328799	0.68	88.2353	0.698242	0	
11568	-5.39825	0.129547	0.0111488	0.68	88.2353	0.698242	0	
11576	-5.37506	0.119324	0.00581903	0.68	88.2353	0.698242	0	
11584	-5.35065	0.104065	0.000528283	0.68	88.2353	0.698242	0	
11592	-5.32928	0.0823975	0.00234249	0.68	88.2353	0.698242	0	
11600	-5.3067	0.0552368	0.0266312	0.68	88.2353	0.698242	0	
11608	-5.28473	0.0247192	0.0411311	0.68	88.2353	0.698242	0	
11616	-5.26123	-0.0317383	0.0640434	0.68	88.2353	0.698242	0	
11624	-5.24017	-0.0756836	0.076616	0.68	88.2353	0.698242	0	
11632	-5.21729	-0.109253	0.0549497	0.68	88.2353	0.698242	0	
11640	-5.19653	-0.136871	0.0376479	0.68	88.2353	0.698242	0	
11648	-5.17395	-0.176849	-0.00035101	0.68	88.2353	0.698242	0	
11656	-5.15503	-0.239563	-0.020635	0.68	88.2353	0.698242	0	
11664	-5.13397	-0.251617	-0.0479392	0.68	88.2353	0.698242	0	
11672	-5.11536	-0.244904	-0.0867597	0.68	88.2353	0.698242	0	
11680	-5.09583	-0.239563	-0.0655741	0.68	88.2353	0.698242	0	
11688	-5.07843	-0.249023	-0.0271321	0.68	88.2353	0.698242	0	
11696	-5.05981	-0.253601	-0.0242603	0.68	88.2353	0.698242	0	
11704	-5.0415	-0.290527	-0.00785285	0.68	88.2353	0.698242	0	
11712	-5.02563	-0.259094	-0.0203382	0.68	88.2353	0.698242	0	
11720	-5.00946	-0.220184	-0.0525973	0.68	88.2353	0.698242	0	
11728	-4.99268	-0.185852	-0.0977043	0.68	88.2353	0.698242	0	
11736	-4.9765	-0.163116	-0.0623839	0.68	88.2353	0.698242	0	
11744	-4.96216	-0.144348	-0.0918727	0.68	88.2353	0.698242	0	
11752	-4.94995	-0.103302	-0.183448	0.68	88.2353	0.698242	0	
11760	-4.93683	-0.0535583	-0.0266945	0.68	88.2353	0.698242	0	
11768	-4.92371	0.000915527	0.450993	0.68	88.2353	0.698242	0	
11776	-4.91272	0.0453186	0.594777	0.68	88.2353	0.698242	0	
11784	-4.90295	0.0827026	0.341209	0.68	88.2353	0.698242	0	
11792	-4.88922	0.11261	0.149869	0.68	88.2353	0.698242	0	
11800	-4.87976	0.119476	-0.193358	0.68	88.2353	0.698242	0	
11808	-4.87183	0.107727	-0.310493	0.68	88.2353	0.698242	0	
11816	-4.86359	0.0889587	-0.238483	0.68	88.2353	0.698242	0	
11824	-4.85382	0.0762939	-0.167492	0.68	88.2353	0.698242	0	
11832	-4.84863	0.0506592	-0.0579512	0.68	88.2353	0.698242	0	
11840	-4.83978	0.0419617	-0.0148509	0.68	88.2353	0.698242	0	
11848	-4.83398	0.0654602	0.000621599	0.68	88.2353	0.698242	0	
11856	-4.82941	0.09552	-0.0139208	0.68	88.2353	0.698242	0	
11864	-4.82483	0.117798	-0.0221512	0.68	88.2353	0.698242	0	
11872	-4.82422	0.13916	-0.0394303	0.68	88.2353	0.698242	0	
11880	-4.81842	0.183868	-0.0384661	0.68	88.2353	0.698242	0	
11888	-4.81445	0.244446	-0.0350926	0.68	88.2353	0.698242	0	
11896	-4.81445	0.305328	-0.0359937	0.68	88.2353	0.698242	0	
11904	-4.81384	0.299683	-0.0245897	0.68	88.2353	0.698242	0	
11912	-4.81018	0.268555	-0.00343482	0.68	88.2353	0.698242	0	
11920	-4.80927	0.229645	0.0274405	0.68	88.2353	0.698242	0	
11928	-4.80957	0.170288	0.0516436	0.68	88.2353	0.698242	0	
11936	-4.80927	0.106812	0.0640543	0.68	88.2353	0.698242	0	
11944	-4.80927	0.038147	0.0632423	0.68	88.2353	0.698242	0	
11952	-4.80957	0.00442505	0.0524993	0.68	88.2353	0.698242	0	
11960	-4.81445	-0.019989	0.0516752	0.68	88.2353	0.698242	0	
11968	-4.81476	-0.0372314	0.0515078	0.68	88.2353	0.698242	0	
11976	-4.81903	-0.0396729	0.0431008	0.68	88.2353	0.698242	0	
11984	-4.81903	-0.0102234	0.030579	0.68	88.2353	0.698242	0	
11992	-4.82391	0.0186157	0.0265852	0.68	88.2353	0.698242	0	
12000	-4.82635	0.0404358	0.0353063	0.68	88.2353	0.698242	0	
12008	-4.82971	0.0462341	-0.00172841	0.68	88.2353	0.698242	0	
12016	-4.83459	0.0062561	-0.0204737	0.68	88.2353	0.698242	0	
12024	-4.83948	0.000915527	-0.0243616	0.68	88.2353	0.698242	0	
12032	-4.84375	0.211182	-0.0118749	0.68	88.2353	0.698242	0	
12040	-4.84802	0.573273	-0.0169207	0.68	88.2353	0.698242	0	
12048	-4.85107	0.630188	-0.0741422	0.68	88.2353	0.698242	0	
12056	-4.85565	0.380554	-0.055273	0.664	90.3614	0.630188	0	
12064	-4.86053	0.0697327	-0.0268102	0.664	90.3614	0.630188	0	
12072	-4.86542	-0.286865	-0.0117416	0.664	90.3614	0.630188	0	
12080	-4.87305	-0.43045	-0.0181086	0.664	90.3614	0.630188	0	
12088	-4.87793	-0.366821	-0.00751509	0.664	90.3614	0.630188	0	
12096	-4.88403	-0.285645	-0.0747314	0.664	90.3614	0.630188	0	
12104	-4.888	-0.232086	-0.035988	0.664	90.3614	0.630188	0	
12112	-4.89319	-0.202026	-0.00893756	0.664	90.3614	0.630188	0	
12120	-4.89807	-0.177612	0.00261307	0.664	90.3614	0.630188	0	
12128	-4.90723	-0.144653	-0.00131641	0.664	90.3614	0.630188	0	
12136	-4.91241	-0.126953	-0.010978	0.664	90.3614	0.630188	0	
12144	-4.92035	-0.108032	0.0108766	0.664	90.3614	0.630188	0	
12152	-4.92767	-0.10025	0.0316738	0.664	90.3614	0.630188	0	
12160	-4.93652	-0.0909424	0.0542163	0.664	90.3614	0.630188	0	
12168	-4.94171	-0.0610352	0.0642659	0.664	90.3614	0.630188	0	
12176	-4.95178	-0.0193787	0.0749271	0.664	90.3614	0.630188	0	
12184	-4.96246	0.0146484	0.0843779	0.664	90.3614	0.630188	0	
12192	-4.97131	0.0442505	0.0618316	0.664	90.3614	0.630188	0	
12200	-4.98169	0.0753784	0.0202346	0.664	90.3614	0.630188	0	
12208	-4.99054	0.0967407	-0.0173484	0.664	90.3614	0.630188	0	
12216	-5.00488	0.117645	-0.0351455	0.664	90.3614	0.630188	0	
12224	-5.01556	0.129242	-0.0859645	0.664	90.3614	0.630188	0	
12232	-5.02655	0.128632	-0.11684	0.664	90.3614	0.630188	0	
12240	-5.04059	0.0949097	-0.0929263	0.664	90.3614	0.630188	0	
12248	-5.05402	0.0758362	-0.0587223	0.664	90.3614	0.630188	0	
12256	-5.06683	0.0602722	-0.0426872	0.664	90.3614	0.630188	0	
12264	-5.07965	0.0335693	-0.0358415	0.664	90.3614	0.630188	0	
12272	-5.09399	0.00946045	0.0090993	0.664	90.3614	0.630188	0	
12280	-5.11108	-0.0105286	0.084052	0.664	90.3614	0.630188	0	
12288	-5.12543	-0.0334167	0.170265	0.664	90.3614	0.630188	0	
12296	-5.14221	-0.055542	0.147533	0.664	90.3614	0.630188	0	
12304	-5.15808	-0.0811768	0.108453	0.664	90.3614	0.630188	0	
12312	-5.17303	-0.106659	0.0895769	0.664	90.3614	0.630188	0	
12320	-5.18982	-0.130005	0.0507078	0.664	90.3614	0.630188	0	
12328	-5.20721	-0.161591	-0.00177356	0.664	90.3614	0.630188	0	
12336	-5.22156	-0.20874	-0.0881196	0.664	90.3614	0.630188	0	
12344	-5.23773	-0.254669	-0.122356	0.664	90.3614	0.630188	0	
12352	-5.25146	-0.276337	-0.137349	0.664	90.3614	0.630188	0	
12360	-5.26855	-0.248108	-0.136728	0.664	90.3614	0.630188	0	
12368	-5.28259	-0.188293	-0.132114	0.664	90.3614	0.630188	0	
12376	-5.29633	-0.137024	-0.110016	0.664	90.3614	0.630188	0	
12384	-5.31067	-0.0875854	-0.108363	0.664	90.3614	0.630188	0	
12392	-5.32501	-0.0630188	-0.0778778	0.664	90.3614	0.630188	0	
12400	-5.33936	-0.0349426	-0.0122959	0.664	90.3614	0.630188	0	
12408	-5.35004	-0.0126648	-0.0389084	0.664	90.3614	0.630188	0	
12416	-5.36377	-0.0144958	-0.110112	0.664	90.3614	0.630188	0	
12424	-5.37445	-0.0361633	0.101585	0.664	90.3614	0.630188	0	
12432	-5.38544	-0.0334167	0.587309	0.664	90.3614	0.630188	0	
12440	-5.39856	-0.0196838	0.63068	0.664	90.3614	0.630188	0	
12448	-5.40955	-0.0267029	0.334585	0.664	90.3614	0.630188	0	
12456	-5.41901	-0.0218201	0.101033	0.664	90.3614	0.630188	0	
12464	-5.42847	0.0224304	-0.251735	0.664	90.3614	0.630188	0	
12472	-5.43823	0.0509644	-0.368004	0.664	90.3614	0.630188	0	
12480	-5.44769	0.104218	-0.25879	0.664	90.3614	0.630188	0	
12488	-5.45349	0.131378	-0.184887	0.664	90.3614	0.630188	0	
12496	-5.46356	0.146942	-0.131461	0.664	90.3614	0.630188	0	
12504	-5.46997	0.148926	-0.0769963	0.664	90.3614	0.630188	0	
12512	-5.47821	0.132141	-0.0324996	0.664	90.3614	0.630188	0	
12520	-5.48462	0.113678	0.000845889	0.664	90.3614	0.630188	0	
12528	-5.49316	0.0892639	-0.0078709	0.664	90.3614	0.630188	0	
12536	-5.49835	0.0532532	0.00197588	0.664	90.3614	0.630188	0	
12544	-5.50659	0.0169373	0.00403927	0.664	90.3614	0.630188	0	
12552	-5.5127	-0.0193787	-0.00272416	0.664	90.3614	0.630188	0	
12560	-5.51758	-0.0585938	0.00370923	0.664	90.3614	0.630188	0	
12568	-5.52277	-0.0862122	0.0174204	0.664	90.3614	0.630188	0	
12576	-5.52795	-0.085144	0.0220263	0.664	90.3614	0.630188	0	
12584	-5.53192	-0.078125	0.0319015	0.664	90.3614	0.630188	0	
12592	-5.53711	-0.0662231	0.0504971	0.664	90.3614	0.630188	0	
12600	-5.54169	-0.0457764	0.0484021	0.664	90.3614	0.630188	0	
12608	-5.54657	-0.0296021	0.0511595	0.664	90.3614	0.630188	0	
12616	-5.55237	-0.0267029	0.0546313	0.664	90.3614	0.630188	0	
12624	-5.55237	-0.0291443	0.0587147	0.664	90.3614	0.630188	0	
12632	-5.55756	-0.0314331	0.0152486	0.664	90.3614	0.630188	0	
12640	-5.55695	-0.0494385	0.00927286	0.664	90.3614	0.630188	0	
12648	-5.56183	-0.0666809	0.0126763	0.664	90.3614	0.630188	0	
12656	-5.56152	-0.0660706	-0.00383014	0.664	90.3614	0.630188	0	
12664	-5.56183	-0.0656128	-0.0107638	0.664	90.3614	0.630188	0	
12672	-5.56213	-0.06073	-0.00422842	0.664	90.3614	0.630188	0	
12680	-5.56213	-0.0370789	0.000283593	0.664	90.3614	0.630188	0	
12688	-5.56152	-0.0201416	0.00643538	0.664	90.3614	0.630188	0	
12696	-5.55634	0.00564575	0.00191704	0.664	90.3614	0.630188	0	
12704	-5.55634	0.0242615	-0.0057025	0.664	90.3614	0.630188	0	
12712	-5.55145	0.0326538	-0.0063656	0.664	90.3614	0.630188	0	
12720	-5.55176	0.0288391	-0.0143535	0.664	90.3614	0.630188	0	
12728	-5.54718	0.0196838	-0.0474992	0.664	90.3614	0.630188	0	
12736	-5.5423	0.00762939	-0.0890077	0.664	90.3614	0.630188	0	
12744	-5.5365	-0.0151062	-0.113968	0.664	90.3614	0.630188	0	
12752	-5.52856	-0.0785828	-0.0809303	0.664	90.3614	0.630188	0	
12760	-5.52216	-0.153656	-0.0173219	0.664	90.3614	0.630188	0	
12768	-5.51727	-0.0575256	0.0172609	0.664	90.3614	0.630188	0	
12776	-5.50751	0.290222	0.0536938	0.664	90.3614	0.630188	0	
12784	-5.50201	0.649414	0.0521498	0.664	90.3614	0.630188	0	
12792	-5.49316	0.492554	0.0676374	0.664	90.3614	0.630188	0	
12800	-5.48645	0.264435	0.0792525	0.736	81.5217	0.649414	0	
12808	-5.47821	-0.100861	0.0501236	0.736	81.5217	0.649414	0	
12816	-5.46783	-0.367889	-0.0120967	0.736	81.5217	0.649414	0	
12824	-5.45868	-0.35614	-0.0227001	0.736	81.5217	0.649414	0	
12832	-5.45227	-0.263672	-0.0137395	0.736	81.5217	0.649414	0	
12840	-5.44403	-0.193176	-0.052636	0.736	81.5217	0.649414	0	
12848	-5.43365	-0.134125	-0.076201	0.736	81.5217	0.649414	0	
12856	-5.41962	-0.0463867	-0.0302758	0.736	81.5217	0.649414	0	
12864	-5.40924	-0.0210571	-0.0232204	0.736	81.5217	0.649414	0	
12872	-5.40375	0.00320435	0.0326027	0.736	81.5217	0.649414	0	
12880	-5.39429	0.0273132	0.0470394	0.736	81.5217	0.649414	0	
12888	-5.38452	0.0466919	0.0593968	0.736	81.5217	0.649414	0	
12896	-5.37994	0.0804138	0.0679248	0.736	81.5217	0.649414	0	
12904	-5.36926	0.102997	0.0553676	0.736	81.5217	0.649414	0	
12912	-5.36346	0.131531	0.0469319	0.736	81.5217	0.649414	0	
12920	-5.35461	0.168915	0.031277	0.736	81.5217	0.649414	0	
12928	-5.34882	0.19104	0.00100095	0.736	81.5217	0.649414	0	
12936	-5.34058	0.207062	-0.0187498	0.736	81.5217	0.649414	0	
12944	-5.33539	0.219879	-0.0334815	0.736	81.5217	0.649414	0	
12952	-5.32562	0.214539	-0.0615305	0.736	81.5217	0.649414	0	
12960	-5.32043	0.202179	-0.0830321	0.736	81.5217	0.649414	0	
12968	-5.31555	0.21225	-0.063373	0.736	81.5217	0.649414	0	
12976	-5.30945	0.239105	-0.0422834	0.736	81.5217	0.649414	0	
12984	-5.30121	0.222321	-0.0189478	0.736	81.5217	0.649414	0	
12992	-5.29663	0.208893	0.0136961	0.736	81.5217	0.649414	0	
13000	-5.2951	0.192261	0.0338029	0.736	81.5217	0.649414	0	
13008	-5.29053	0.156555	0.0337972	0.736	81.5217	0.649414	0	
13016	-5.28625	0.134125	0.0372944	0.736	81.5217	0.649414	0	
13024	-5.28595	0.109406	0.0497522	0.736	81.5217	0.649414	0	
13032	-5.28198	0.0564575	0.0248528	0.736	81.5217	0.649414	0	
13040	-5.28137	0.00457764	-0.0114767	0.736	81.5217	0.649414	0	
13048	-5.28137	-0.0263977	-0.0171817	0.736	81.5217	0.649414	0	
13056	-5.28137	-0.045929	-0.0196151	0.736	81.5217	0.649414	0	
13064	-5.27954	-0.0737	-0.0175831	0.736	81.5217	0.649414	0	
13072	-5.27649	-0.105896	-0.000108732	0.736	81.5217	0.649414	0	
13080	-5.28137	-0.131226	-0.0184726	0.736	81.5217	0.649414	0	
13088	-5.28076	-0.146484	-0.014497	0.736	81.5217	0.649414	0	
13096	-5.28168	-0.144806	0.00573673	0.736	81.5217	0.649414	0	
13104	-5.28137	-0.131989	0.02609	0.736	81.5217	0.649414	0	
13112	-5.28168	-0.123901	0.00692625	0.736	81.5217	0.649414	0	
13120	-5.28625	-0.125122	-0.0459934	0.736	81.5217	0.649414	0	
13128	-5.28534	-0.115204	-0.0807147	0.736	81.5217	0.649414	0	
13136	-5.29053	-0.107727	-0.0624984	0.736	81.5217	0.649414	0	
13144	-5.29083	-0.110016	-0.0831608	0.736	81.5217	0.649414	0	
13152	-5.29663	-0.126648	-0.206748	0.736	81.5217	0.649414	0	
13160	-5.29663	-0.131683	-0.170539	0.736	81.5217	0.649414	0	
13168	-5.3009	-0.142059	0.232541	0.736	81.5217	0.649414	0	
13176	-5.3064	-0.136566	0.718609	0.736	81.5217	0.649414	0	
13184	-5.31128	-0.115356	0.424413	0.736	81.5217	0.649414	0	
13192	-5.31586	-0.107269	0.255995	0.736	81.5217	0.649414	0	
13200	-5.32104	-0.109863	-0.0933217	0.736	81.5217	0.649414	0	
13208	-5.32532	-0.112457	-0.368723	0.736	81.5217	0.649414	0	
13216	-5.33051	-0.117188	-0.298315	0.736	81.5217	0.649414	0	
13224	-5.33508	-0.127716	-0.207774	0.736	81.5217	0.649414	0	
13232	-5.34058	-0.128784	-0.178076	0.736	81.5217	0.649414	0	
13240	-5.34668	-0.106659	-0.125181	0.736	81.5217	0.649414	0	
13248	-5.35553	-0.0975037	0.013553	0.736	81.5217	0.649414	0	
13256	-5.3595	-0.0997925	0.0190604	0.736	81.5217	0.649414	0	
13264	-5.36926	-0.0971985	0.00945285	0.736	81.5217	0.649414	0	
13272	-5.37628	-0.0706482	0.00657209	0.736	81.5217	0.649414	0	
13280	-5.38452	-0.0364685	0.00943992	0.736	81.5217	0.649414	0	
13288	-5.39429	-0.0177002	0.041113	0.736	81.5217	0.649414	0	
13296	-5.40436	0.000610352	0.0339893	0.736	81.5217	0.649414	0	
13304	-5.41412	0.0416565	0.024737	0.736	81.5217	0.649414	0	
13312	-5.42847	0.0830078	0.0362233	0.736	81.5217	0.649414	0	
13320	-5.43884	0.121307	0.0334213	0.736	81.5217	0.649414	0	
13328	-5.4538	0.131531	0.0351872	0.736	81.5217	0.649414	0	
13336	-5.46539	0.1297	0.0411302	0.736	81.5217	0.649414	0	
13344	-5.47821	0.110321	0.0163121	0.736	81.5217	0.649414	0	
13352	-5.495	0.0971985	-0.0192633	0.736	81.5217	0.649414	0	
13360	-5.50934	0.0956726	-0.00695862	0.736	81.5217	0.649414	0	
13368	-5.52704	0.0845337	0.0448717	0.736	81.5217	0.649414	0	
13376	-5.54382	0.072937	0.0212953	0.736	81.5217	0.649414	0	
13384	-5.56183	0.0849915	0.0203187	0.736	81.5217	0.649414	0	
13392	-5.58319	0.085144	0.0267147	0.736	81.5217	0.649414	0	
13400	-5.60303	0.0900269	0.00319014	0.736	81.5217	0.649414	0	
13408	-5.62561	0.070343	0.0121935	0.736	81.5217	0.649414	0	
13416	-5.64697	0.0468445	0.0249872	0.736	81.5217	0.649414	0	
13424	-5.67017	0.0212097	-0.00998169	0.736	81.5217	0.649414	0	
13432	-5.69427	-0.00534058	-0.0411253	0.736	81.5217	0.649414	0	
13440	-5.71869	-0.0180054	-0.0384055	0.736	81.5217	0.649414	0	
13448	-5.74341	-0.0335693	-0.0235022	0.736	81.5217	0.649414	0	
13456	-5.76843	-0.0517273	-0.0299315	0.736	81.5217	0.649414	0	
13464	-5.79346	-0.0706482	-0.0447194	0.736	81.5217	0.649414	0	
13472	-5.8197	-0.0630188	-0.0491282	0.736	81.5217	0.649414	0	
13480	-5.84595	-0.0559998	-0.0468537	0.736	81.5217	0.649414	0	
13488	-5.87067	-0.0538635	-0.0293525	0.736	81.5217	0.649414	0	
13496	-5.89661	-0.0494385	-0.00265131	0.736	81.5217	0.649414	0	
13504	-5.92133	-0.0219727	0.0117293	0.736	81.5217	0.649414	0	
13512	-5.94788	0.00259399	0.009647	0.736	81.5217	0.649414	0	
13520	-5.97198	0.00747681	0.0301096	0.736	81.5217	0.649414	0	
13528	-5.99731	0.00488281	0.0442362	0.736	81.5217	0.649414	0	
13536	-6.02203	0.0239563	0.0409356	0.736	81.5217	0.649414	0	
13544	-6.04462	0.0491333	0.0156839	0.736	81.5217	0.649414	0	
13552	-6.06903	0.0805664	0.0178851	0.736	81.5217	0.649414	0	
13560	-6.091	0.124359	0.00340879	0.736	81.5217	0.649414	0	
13568	-6.11328	0.131683	0.00612248	0.736	81.5217	0.649414	0	
13576	-6.13525	0.104218	0.0287204	0.736	81.5217	0.649414	0	
13584	-6.15387	0.0979614	0.0265901	0.736	81.5217	0.649414	0	
13592	-6.17676	0.0756836	0.0154405	0.736	81.5217	0.649414	0	
13600	-6.19385	0.0500488	0.0149737	0.736	81.5217	0.649414	0	
13608	-6.21185	0.0166321	0.00913143	0.736	81.5217	0.649414	0	
13616	-6.23138	-0.0219727	-0.0191767	0.736	81.5217	0.649414	0	
13624	-6.24573	-0.0512695	-0.0385653	0.736	81.5217	0.649414	0	
13632	-6.2619	-0.0679016	-0.0137049	0.736	81.5217	0.649414	0	
13640	-6.27563	-0.065155	-0.0125533	0.736	81.5217	0.649414	0	
13648	-6.28571	-0.0506592	-0.0360664	0.736	81.5217	0.649414	0	
13656	-6.29608	-0.0216675	-0.0581819	0.736	81.5217	0.649414	0	
13664	-6.30554	0.00640869	-0.0416591	0.736	81.5217	0.649414	0	
13672	-6.31409	0.0440979	-0.0140837	0.736	81.5217	0.649414	0	
13680	-6.32019	0.0582886	-0.0180078	0.736	81.5217	0.649414	0	
13688	-6.32599	0.075531	-0.0262873	0.736	81.5217	0.649414	0	
13696	-6.32507	0.0756836	0.00345809	0.736	81.5217	0.649414	0	
13704	-6.33057	0.0706482	0.030027	0.736	81.5217	0.649414	0	
13712	-6.33026	0.0730896	0.0590641	0.736	81.5217	0.649414	0	
13720	-6.33057	0.0531006	0.0523004	0.736	81.5217	0.649414	0	
13728	-6.32507	0.0312805	0.0432543	0.736	81.5217	0.649414	0	
13736	-6.32538	0.0326538	0.0124612	0.736	81.5217	0.649414	0	
13744	-6.32111	0.019989	-0.00224069	0.736	81.5217	0.649414	0	
13752	-6.31561	-0.00198364	0.00542269	0.736	81.5217	0.649414	0	
13760	-6.30585	-0.0244141	-0.00729402	0.736	81.5217	0.649414	0	
13768	-6.30096	-0.0610352	-0.0226011	0.736	81.5217	0.649414	0	
13776	-6.29089	-0.065918	0.00713585	0.736	81.5217	0.649414	0	
13784	-6.28113	-0.0610352	0.0138734	0.736	81.5217	0.649414	0	
13792	-6.27106	-0.0862122	0.0377006	0.736	81.5217	0.649414	0	
13800	-6.25732	-0.092926	0.0249887	0.736	81.5217	0.649414	0	
13808	-6.24634	-0.0883484	0.0149582	0.736	81.5217	0.649414	0	
13816	-6.23199	-0.0831604	0.00318961	0.736	81.5217	0.649414	0	
13824	-6.21826	-0.0689697	-0.0144564	0.736	81.5217	0.649414	0	
13832	-6.20514	-0.0585938	-0.00994953	0.736	81.5217	0.649414	0	
13840	-6.19049	-0.0605774	-0.0158002	0.736	81.5217	0.649414	0	
13848	-6.17371	-0.0830078	-0.0317241	0.736	81.5217	0.649414	0	
13856	-6.15784	-0.127716	-0.0560068	0.736	81.5217	0.649414	0	
13864	-6.14319	-0.0332642	-0.0352488	0.736	81.5217	0.649414	0	
13872	-6.12671	0.307312	-0.0237775	0.736	81.5217	0.649414	0	
13880	-6.1084	0.679016	-0.0306506	0.736	81.5217	0.649414	0	
13888	-6.09192	0.588074	-0.0420638	0.736	81.5217	0.649414	0	
13896	-6.07452	0.354004	-0.0134522	1.096	54.7445	0.649414	0	
13904	-6.05621	0.0186157	0.0109448	1.096	54.7445	0.679016	0	
13912	-6.0379	-0.276794	0.00367655	1.096	54.7445	0.679016	0	
13920	-6.01746	-0.342102	-0.0139907	1.096	54.7445	0.679016	0	
13928	-5.99854	-0.268402	0.0048332	1.096	54.7445	0.679016	0	
13936	-5.9787	-0.211945	0.0210322	1.096	54.7445	0.679016	0	
13944	-5.95917	-0.190125	0.0409347	1.096	54.7445	0.679016	0	
13952	-5.93903	-0.166626	0.0938789	1.096	54.7445	0.679016	0	
13960	-5.9198	-0.15152	0.0960119	1.096	54.7445	0.679016	0	
13968	-5.89996	-0.141449	0.0503004	1.096	54.7445	0.679016	0	
13976	-5.87738	-0.134735	0.0580185	1.096	54.7445	0.679016	0	
13984	-5.85815	-0.115509	0.0364043	1.096	54.7445	0.679016	0	
13992	-5.83832	-0.102692	0.0113466	1.096	54.7445	0.679016	0	
14000	-5.81818	-0.0883484	-0.0221815	1.096	54.7445	0.679016	0	
14008	-5.79803	-0.0738525	-0.06111	1.096	54.7445	0.679016	0	
14016	-5.7785	-0.050354	-0.0859352	1.096	54.7445	0.679016	0	
14024	-5.75684	-0.0146484	-0.0999299	1.096	54.7445	0.679016	0	
14032	-5.7373	0.0517273	-0.0937313	1.096	54.7445	0.679016	0	
14040	-5.71564	0.126343	-0.0804786	1.096	54.7445	0.679016	0	
14048	-5.6958	0.17868	-0.0494317	1.096	54.7445	0.679016	0	
14056	-5.67566	0.229645	-0.024541	1.096	54.7445	0.679016	0	
14064	-5.65582	0.252228	0.0230622	1.096	54.7445	0.679016	0	
14072	-5.63599	0.248566	0.0331217	1.096	54.7445	0.679016	0	
14080	-5.61554	0.198059	0.0594964	1.096	54.7445	0.679016	0	
14088	-5.5957	0.126495	0.0588834	1.096	54.7445	0.679016	0	
14096	-5.57434	0.0680542	0.053737	1.096	54.7445	0.679016	0	
14104	-5.55542	0.0308228	0.0716835	1.096	54.7445	0.679016	0	
14112	-5.53711	0.0169373	0.0533359	1.096	54.7445	0.679016	0	
14120	-5.51758	0.0140381	0.0332595	1.096	54.7445	0.679016	0	
14128	-5.49774	0.00961304	0.0532301	1.096	54.7445	0.679016	0	
14136	-5.47913	0.0170898	0.0404058	1.096	54.7445	0.679016	0	
14144	-5.46234	0.0390625	0.0163811	1.096	54.7445	0.679016	0	
14152	-5.44342	0.0506592	0.00559347	1.096	54.7445	0.679016	0	
14160	-5.42725	0.00946045	-0.0319176	1.096	54.7445	0.679016	0	
14168	-5.40955	-0.022583	-0.0257598	1.096	54.7445	0.679016	0	
14176	-5.39368	-0.0315857	-0.0235579	1.096	54.7445	0.679016	0	
14184	-5.37598	-0.0360107	-0.0828548	1.096	54.7445	0.679016	0	
14192	-5.36072	-0.0405884	-0.0865116	1.096	54.7445	0.679016	0	
14200	-5.34546	-0.0175476	-0.0624484	1.096	54.7445	0.679016	0	
14208	-5.33142	0.0216675	-0.0679641	1.096	54.7445	0.679016	0	
14216	-5.31586	0.0236511	-0.0934557	1.096	54.7445	0.679016	0	
14224	-5.3009	0.0169373	-0.116392	1.096	54.7445	0.679016	0	
14232	-5.28992	0	-0.0986319	1.096	54.7445	0.679016	0	
14240	-5.27649	-0.0219727	-0.0767521	1.096	54.7445	0.679016	0	
14248	-5.26154	-0.0686646	-0.164966	1.096	54.7445	0.679016	0	
14256	-5.25208	-0.127258	-0.142567	1.096	54.7445	0.679016	0	
14264	-5.24109	-0.116882	0.236824	1.096	54.7445	0.679016	0	
14272	-5.22705	-0.0715637	0.724227	1.096	54.7445	0.679016	0	
14280	-5.21759	-0.0585938	0.524976	1.096	54.7445	0.679016	0	
14288	-5.20721	-0.0654602	0.31563	1.096	54.7445	0.679016	0	
14296	-5.19806	-0.0712585	0.0278249	1.096	54.7445	0.679016	0	
14304	-5.19257	-0.0634766	-0.26801	1.096	54.7445	0.679016	0	
14312	-5.18311	-0.0630188	-0.29787	1.096	54.7445	0.679016	0	
14320	-5.17731	-0.0566101	-0.193203	1.096	54.7445	0.679016	0	
14328	-5.16785	-0.0440979	-0.146853	1.096	54.7445	0.679016	0	
14336	-5.16357	-0.0392151	-0.122629	1.096	54.7445	0.679016	0	
14344	-5.15839	-0.0413513	-0.0607272	1.096	54.7445	0.679016	0	
14352	-5.15289	-0.0556946	-0.0256785	1.096	54.7445	0.679016	0	
14360	-5.14832	-0.0636292	-0.0269972	1.096	54.7445	0.679016	0	
14368	-5.14832	-0.065918	-0.0435187	1.096	54.7445	0.679016	0	
14376	-5.14374	-0.0556946	-0.0255912	1.096	54.7445	0.679016	0	
14384	-5.14374	-0.0346375	-0.0153047	1.096	54.7445	0.679016	0	
14392	-5.13885	-0.0175476	-0.0126749	1.096	54.7445	0.679016	0	
14400	-5.13794	-0.00274658	-0.0275303	1.096	54.7445	0.679016	0	
14408	-5.14374	0.01297	-0.0373589	1.096	54.7445	0.679016	0	
14416	-5.14404	0.0245667	-0.031154	1.096	54.7445	0.679016	0	
14424	-5.14771	0.0245667	0.0256594	1.096	54.7445	0.679016	0	
14432	-5.14832	0.0219727	0.0865779	1.096	54.7445	0.679016	0	
14440	-5.1532	0.0167847	0.100198	1.096	54.7445	0.679016	0	
14448	-5.159	0.0437927	0.128754	1.096	54.7445	0.679016	0	
14456	-5.16815	0.0541687	0.137895	1.096	54.7445	0.679016	0	
14464	-5.17334	0.0683594	0.13888	1.096	54.7445	0.679016	0	
14472	-5.1828	0.0869751	0.0817209	1.096	54.7445	0.679016	0	
14480	-5.18768	0.102234	-0.000584908	1.096	54.7445	0.679016	0	
14488	-5.19775	0.0947571	-0.0581991	1.096	54.7445	0.679016	0	
14496	-5.20782	0.0750732	-0.0860484	1.096	54.7445	0.679016	0	
14504	-5.21759	0.0515747	-0.0824462	1.096	54.7445	0.679016	0	
14512	-5.22675	0.0369263	-0.0701823	1.096	54.7445	0.679016	0	
14520	-5.24109	0.0311279	-0.0715511	1.096	54.7445	0.679016	0	
14528	-5.25208	0.0177002	-0.0553835	1.096	54.7445	0.679016	0	
14536	-5.26337	-0.00167847	-0.00790048	1.096	54.7445	0.679016	0	
14544	-5.27618	-0.0146484	0.0317988	1.096	54.7445	0.679016	0	
14552	-5.28992	-0.0204468	-0.016793	1.096	54.7445	0.679016	0	
14560	-5.3009	-0.0390625	-0.0380937	1.096	54.7445	0.679016	0	
14568	-5.31647	-0.0827026	-0.0207374	1.096	54.7445	0.679016	0	
14576	-5.3302	-0.114594	-0.0137291	1.096	54.7445	0.679016	0	
14584	-5.34454	0.052948	-0.02622	1.096	54.7445	0.679016	0	
14592	-5.35675	0.4245	0.00643196	1.096	54.7445	0.679016	0	
14600	-5.36896	0.578156	0.0704125	1.096	54.7445	0.679016	0	
14608	-5.38513	0.352631	0.0649807	0.72	83.3333	0.578156	0	
14616	-5.39917	0.0637817	0.0539332	0.72	83.3333	0.578156	0	
14624	-5.41412	-0.277252	0.0421513	0.72	83.3333	0.578156	0	
14632	-5.42847	-0.432129	0.0409487	0.72	83.3333	0.578156	0	
14640	-5.44067	-0.387726	-0.00292865	0.72	83.3333	0.578156	0	
14648	-5.4538	-0.278778	-0.0869468	0.72	83.3333	0.578156	0	
14656	-5.46814	-0.203247	-0.0636866	0.72	83.3333	0.578156	0	
14664	-5.48004	-0.153656	0.00629731	0.72	83.3333	0.578156	0	
14672	-5.49255	-0.122833	0.0108735	0.72	83.3333	0.578156	0	
14680	-5.50262	-0.10788	-0.00812243	0.72	83.3333	0.578156	0	
14688	-5.51666	-0.103302	-0.0110951	0.72	83.3333	0.578156	0	
14696	-5.52673	-0.0982666	0.0119224	0.72	83.3333	0.578156	0	
14704	-5.5368	-0.0854492	0.00808244	0.72	83.3333	0.578156	0	
14712	-5.54626	-0.0799561	0.00618808	0.72	83.3333	0.578156	0	
14720	-5.55328	-0.0592041	0.0168377	0.72	83.3333	0.578156	0	
14728	-5.56213	-0.0439453	0.0200874	0.72	83.3333	0.578156	0	
14736	-5.5719	-0.0369263	0.0172481	0.72	83.3333	0.578156	0	
14744	-5.57709	-0.0119019	-0.00665003	0.72	83.3333	0.578156	0	
14752	-5.5835	0.0141907	-0.0200997	0.72	83.3333	0.578156	0	
14760	-5.59143	0.0408936	-0.0301589	0.72	83.3333	0.578156	0	
14768	-5.59662	0.0656128	-0.0266592	0.72	83.3333	0.578156	0	
14776	-5.60059	0.0907898	-0.0112412	0.72	83.3333	0.578156	0	
14784	-5.60303	0.0923157	-0.00624467	0.72	83.3333	0.578156	0	
14792	-5.60608	0.0909424	-0.00112972	0.72	83.3333	0.578156	0	
14800	-5.61096	0.102386	0.0117784	0.72	83.3333	0.578156	0	
14808	-5.61646	0.102692	0.0193263	0.72	83.3333	0.578156	0	
14816	-5.61615	0.0822449	0.00588575	0.72	83.3333	0.578156	0	
14824	-5.61615	0.0483704	-0.00754226	0.72	83.3333	0.578156	0	
14832	-5.62103	0.0238037	-0.0218608	0.72	83.3333	0.578156	0	
14840	-5.62042	0.0195313	0.0227361	0.72	83.3333	0.578156	0	
14848	-5.62073	0.0219727	0.0189708	0.72	83.3333	0.578156	0	
14856	-5.62042	0.014801	0.0127754	0.72	83.3333	0.578156	0	
14864	-5.62073	0.012207	0.0246605	0.72	83.3333	0.578156	0	
14872	-5.62073	0.0170898	0.052689	0.72	83.3333	0.578156	0	
14880	-5.62103	0.0172424	0.0501137	0.72	83.3333	0.578156	0	
14888	-5.61584	0.00183105	0.019196	0.72	83.3333	0.578156	0	
14896	-5.61584	-0.0177002	-0.0269866	0.72	83.3333	0.578156	0	
14904	-5.61096	-0.0288391	-0.0466598	0.72	83.3333	0.578156	0	
14912	-5.60608	-0.0244141	-0.0298164	0.72	83.3333	0.578156	0	
14920	-5.6012	-0.0120544	-0.0281436	0.72	83.3333	0.578156	0	
14928	-5.5957	-0.00488281	-0.065459	0.72	83.3333	0.578156	0	
14936	-5.59143	-0.00732422	-0.108344	0.72	83.3333	0.578156	0	
14944	-5.58685	-0.0120544	-0.106271	0.72	83.3333	0.578156	0	
14952	-5.58197	-0.022583	-0.0710327	0.72	83.3333	0.578156	0	
14960	-5.57281	-0.0294495	-0.0822663	0.72	83.3333	0.578156	0	
14968	-5.56671	-0.0247192	-0.178156	0.72	83.3333	0.578156	0	
14976	-5.55664	-0.0163269	-0.0352867	0.72	83.3333	0.578156	0	
14984	-5.55206	-0.00167847	0.453093	0.72	83.3333	0.578156	0	
14992	-5.5426	0.0170898	0.639744	0.72	83.3333	0.578156	0	
15000	-5.53253	0.0219727	0.332748	0.72	83.3333	0.578156	0	
15008	-5.52277	0.0245667	0.106107	0.72	83.3333	0.578156	0	
15016	-5.51239	0.0138855	-0.219711	0.72	83.3333	0.578156	0	
15024	-5.50323	-0.0123596	-0.346641	0.72	83.3333	0.578156	0	
15032	-5.48889	-0.0509644	-0.274428	0.72	83.3333	0.578156	0	
15040	-5.47791	-0.0852966	-0.166102	0.72	83.3333	0.578156	0	
15048	-5.46631	-0.108185	-0.10165	0.72	83.3333	0.578156	0	
15056	-5.4538	-0.125122	-0.0318552	0.72	83.3333	0.578156	0	
15064	-5.43976	-0.148773	0.0232173	0.72	83.3333	0.578156	0	
15072	-5.42877	-0.154114	0.0352126	0.72	83.3333	0.578156	0	
15080	-5.41473	-0.14679	0.0174537	0.72	83.3333	0.578156	0	
15088	-5.40009	-0.131989	0.0088119	0.72	83.3333	0.578156	0	
15096	-5.38757	-0.109711	0.0236166	0.72	83.3333	0.578156	0	
15104	-5.37476	-0.0653076	0.0152542	0.72	83.3333	0.578156	0	
15112	-5.35889	-0.00946045	0.0210923	0.72	83.3333	0.578156	0	
15120	-5.34607	0.0344849	0.00987805	0.72	83.3333	0.578156	0	
15128	-5.33386	0.0758362	-0.0121772	0.72	83.3333	0.578156	0	
15136	-5.32074	0.0968933	0.00450058	0.72	83.3333	0.578156	0	
15144	-5.30579	0.110321	0.0152733	0.72	83.3333	0.578156	0	
15152	-5.2948	0.110168	0.0186441	0.72	83.3333	0.578156	0	
15160	-5.28137	0.10498	0.0225615	0.72	83.3333	0.578156	0	
15168	-5.26642	0.085144	0.0436592	0.72	83.3333	0.578156	0	
15176	-5.25635	0.0683594	0.0316124	0.72	83.3333	0.578156	0	
15184	-5.242	0.0892639	0.0181143	0.72	83.3333	0.578156	0	
15192	-5.23193	0.1091	0.0322487	0.72	83.3333	0.578156	0	
15200	-5.21698	0.120239	0.0346682	0.72	83.3333	0.578156	0	
15208	-5.20721	0.111237	0.0134633	0.72	83.3333	0.578156	0	
15216	-5.19531	0.102234	-0.0219249	0.72	83.3333	0.578156	0	
15224	-5.18311	0.0880432	-0.0401397	0.72	83.3333	0.578156	0	
15232	-5.17334	0.078125	-0.029111	0.72	83.3333	0.578156	0	
15240	-5.16296	0.0526428	-0.014885	0.72	83.3333	0.578156	0	
15248	-5.1532	0.00274658	-0.0232081	0.72	83.3333	0.578156	0	
15256	-5.14404	0.0186157	-0.0211333	0.72	83.3333	0.578156	0	
15264	-5.13428	0.287933	-0.00192068	0.72	83.3333	0.578156	0	
15272	-5.12421	0.661011	0.0109503	0.72	83.3333	0.578156	0	
15280	-5.11719	0.64621	-0.00278663	0.72	83.3333	0.578156	0	
15288	-5.10956	0.387878	-0.0224024	0.672	89.2857	0.578156	0	
15296	-5.09918	0.0834656	-0.0301719	0.672	89.2857	0.661011	0	
15304	-5.09491	-0.22995	-0.0186323	0.672	89.2857	0.661011	0	
15312	-5.08545	-0.320282	-0.00193572	0.672	89.2857	0.661011	0	
15320	-5.08026	-0.254517	0.00316606	0.672	89.2857	0.661011	0	
15328	-5.07446	-0.202637	-0.00240681	0.672	89.2857	0.661011	0	
15336	-5.07019	-0.174103	-0.00228097	0.672	89.2857	0.661011	0	
15344	-5.0647	-0.166473	-0.0102146	0.672	89.2857	0.661011	0	
15352	-5.05951	-0.149689	-0.0157961	0.672	89.2857	0.661011	0	
15360	-5.05493	-0.127869	-0.00697388	0.672	89.2857	0.661011	0	
15368	-5.05432	-0.114594	0.0022516	0.672	89.2857	0.661011	0	
15376	-5.05005	-0.105133	0.0215017	0.672	89.2857	0.661011	0	
15384	-5.04547	-0.0999451	0.050738	0.672	89.2857	0.661011	0	
15392	-5.04517	-0.0941467	0.0575981	0.672	89.2857	0.661011	0	
15400	-5.04028	-0.0810242	0.0689692	0.672	89.2857	0.661011	0	
15408	-5.03998	-0.0628662	0.0662861	0.672	89.2857	0.661011	0	
15416	-5.04059	-0.0363159	0.0459278	0.672	89.2857	0.661011	0	
15424	-5.0351	0.00259399	0.0102251	0.672	89.2857	0.661011	0	
15432	-5.0351	0.035553	-0.0166223	0.672	89.2857	0.661011	0	
15440	-5.03479	0.0535583	-0.0297519	0.672	89.2857	0.661011	0	
15448	-5.03448	0.067749	-0.0436815	0.672	89.2857	0.661011	0	
15456	-5.0351	0.092926	-0.0798136	0.672	89.2857	0.661011	0	
15464	-5.03479	0.119019	-0.0834729	0.672	89.2857	0.661011	0	
15472	-5.03601	0.137177	-0.0691709	0.672	89.2857	0.661011	0	
15480	-5.03571	0.14679	-0.0577734	0.672	89.2857	0.661011	0	
15488	-5.0354	0.136108	-0.0556042	0.672	89.2857	0.661011	0	
15496	-5.03479	0.0843811	-0.0261284	0.672	89.2857	0.661011	0	
15504	-5.0354	0.0221252	0.0246416	0.672	89.2857	0.661011	0	
15512	-5.03571	-0.0177002	0.0584956	0.672	89.2857	0.661011	0	
15520	-5.04059	-0.0384521	0.0905359	0.672	89.2857	0.661011	0	
15528	-5.03967	-0.0852966	0.0823311	0.672	89.2857	0.661011	0	
15536	-5.04028	-0.10025	0.0691148	0.672	89.2857	0.661011	0	
15544	-5.04547	-0.102081	0.0534221	0.672	89.2857	0.661011	0	
15552	-5.04974	-0.100098	0.0491273	0.672	89.2857	0.661011	0	
15560	-5.05005	-0.105133	0.0114001	0.672	89.2857	0.661011	0	
15568	-5.05493	-0.0918579	-0.0464871	0.672	89.2857	0.661011	0	
15576	-5.06012	-0.0749207	-0.0465567	0.672	89.2857	0.661011	0	
15584	-5.06531	-0.0408936	-0.0361166	0.672	89.2857	0.661011	0	
15592	-5.06989	-0.00946045	-0.0177639	0.672	89.2857	0.661011	0	
15600	-5.07568	0.0038147	-0.0362813	0.672	89.2857	0.661011	0	
15608	-5.08423	-0.00762939	-0.0738903	0.672	89.2857	0.661011	0	
15616	-5.08942	-0.0164795	-0.120864	0.672	89.2857	0.661011	0	
15624	-5.09918	-0.0202942	-0.110757	0.672	89.2857	0.661011	0	
15632	-5.10406	-0.0422668	-0.0808215	0.672	89.2857	0.661011	0	
15640	-5.11444	-0.0578308	-0.13315	0.672	89.2857	0.661011	0	
15648	-5.12024	-0.0653076	-0.194302	0.672	89.2857	0.661011	0	
15656	-5.12939	-0.0657654	0.106873	0.672	89.2857	0.661011	0	
15664	-5.13916	-0.0654602	0.618926	0.672	89.2857	0.661011	0	
15672	-5.14801	-0.0788879	0.554726	0.672	89.2857	0.661011	0	
15680	-5.15808	-0.093689	0.274862	0.672	89.2857	0.661011	0	
15688	-5.16876	-0.113525	0.0520776	0.672	89.2857	0.661011	0	
15696	-5.17731	-0.126343	-0.251615	0.672	89.2857	0.661011	0	
15704	-5.18738	-0.131989	-0.300057	0.672	89.2857	0.661011	0	
15712	-5.19867	-0.127563	-0.193032	0.672	89.2857	0.661011	0	
15720	-5.20752	-0.114288	-0.14875	0.672	89.2857	0.661011	0	
15728	-5.21729	-0.0991821	-0.104752	0.672	89.2857	0.661011	0	
15736	-5.22675	-0.0784302	-0.065865	0.672	89.2857	0.661011	0	
15744	-5.23682	-0.0553894	-0.0217831	0.672	89.2857	0.661011	0	
15752	-5.24658	-0.0389099	-3.90216E-06	0.672	89.2857	0.661011	0	
15760	-5.25787	-0.0224304	-0.00452906	0.672	89.2857	0.661011	0	
15768	-5.27039	-0.0149536	-0.000556029	0.672	89.2857	0.661011	0	
15776	-5.28107	0.0050354	0.00729968	0.672	89.2857	0.661011	0	
15784	-5.29144	-0.0302124	0.00673659	0.672	89.2857	0.661011	0	
15792	-5.3009	-0.0193787	-0.000785293	0.672	89.2857	0.661011	0	
15800	-5.31128	0.00427246	-0.0127653	0.672	89.2857	0.661011	0	
15808	-5.32013	0.0318909	-0.0102801	0.672	89.2857	0.661011	0	
15816	-5.33112	0.0434875	0.0192993	0.672	89.2857	0.661011	0	
15824	-5.33997	0.0657654	0.0389769	0.672	89.2857	0.661011	0	
15832	-5.35034	0.101624	0.0324535	0.672	89.2857	0.661011	0	
15840	-5.3598	0.123901	0.0247415	0.672	89.2857	0.661011	0	
15848	-5.36957	0.149078	0.0439153	0.672	89.2857	0.661011	0	
15856	-5.37933	0.163116	0.0661847	0.672	89.2857	0.661011	0	
15864	-5.3894	0.16571	0.0770173	0.672	89.2857	0.661011	0	
15872	-5.39948	0.160828	0.087952	0.672	89.2857	0.661011	0	
15880	-5.40894	0.127106	0.0879074	0.672	89.2857	0.661011	0	
15888	-5.41962	0.085144	0.0348196	0.672	89.2857	0.661011	0	
15896	-5.42908	0.0372314	-0.0250379	0.672	89.2857	0.661011	0	
15904	-5.43732	-0.0146484	-0.0435127	0.672	89.2857	0.661011	0	
15912	-5.44403	-0.0469971	-0.0367406	0.672	89.2857	0.661011	0	
15920	-5.45349	-0.0675964	-0.0945879	0.672	89.2857	0.661011	0	
15928	-5.46265	-0.0779724	-0.0969873	0.672	89.2857	0.661011	0	
15936	-5.47363	-0.0701904	-0.0791852	0.672	89.2857	0.661011	0	
15944	-5.47852	-0.0543213	-0.0604582	0.672	89.2857	0.661011	0	
15952	-5.48828	-0.0508118	-0.0647344	0.672	89.2857	0.661011	0	
15960	-5.49774	-0.0517273	-0.0437066	0.672	89.2857	0.661011	0	
15968	-5.50323	-0.112457	-0.0269663	0.672	89.2857	0.661011	0	
15976	-5.51147	-0.176086	0.0165504	0.672	89.2857	0.661011	0	
15984	-5.51819	-0.00778198	0.0563077	0.672	89.2857	0.661011	0	
15992	-5.52277	0.35553	0.0703201	0.672	89.2857	0.661011	0	
16000	-5.52734	0.614777	0.049261	0.672	89.2857	0.661011	0	
16008	-5.53223	0.378571	0.0445019	0.672	89.2857	0.661011	0	
16016	-5.5368	0.11734	0.0543986	0.728	82.4176	0.614777	0	
16024	-5.53772	-0.252228	0.0274646	0.728	82.4176	0.614777	0	
16032	-5.5426	-0.47226	0.0105234	0.728	82.4176	0.614777	0	
16040	-5.54169	-0.439758	0.00614244	0.728	82.4176	0.614777	0	
16048	-5.54169	-0.361176	0.0125133	0.728	82.4176	0.614777	0	
16056	-5.54321	-0.288391	0.0199647	0.728	82.4176	0.614777	0	
16064	-5.5423	-0.231934	0.00455676	0.728	82.4176	0.614777	0	
16072	-5.54199	-0.214996	-0.00602073	0.728	82.4176	0.614777	0	
16080	-5.5423	-0.207977	-0.0227392	0.728	82.4176	0.614777	0	
16088	-5.53711	-0.191498	-0.0306225	0.728	82.4176	0.614777	0	
16096	-5.53314	-0.183411	-0.0369706	0.728	82.4176	0.614777	0	
16104	-5.53223	-0.158539	-0.0363412	0.728	82.4176	0.614777	0	
16112	-5.52734	-0.111542	-0.0260671	0.728	82.4176	0.614777	0	
16120	-5.51849	-0.0517273	-0.0164582	0.728	82.4176	0.614777	0	
